0,1,2,3,4,5,6,7,8,9,10,11,12,13,14,15,16,17,18,19,20,21,22,23,24,25,26,27,28,29,30,31,32,33,34,35,36,37,38,39,40,41,42,43,44,45,46,47,48,49,50,51,52,53,54,55,56,57,58,59,60,61,62,63,64,65,66,67,68,69,70,71,72,73,74,75,76,77,78,79,80,81,82,83,84,85,86,87,88,89,90,91,92,93,94,95,96,97,98,99,100,101,102,103,104,105,106,107,108,109,110,111,112,113,114,115,116,117,118,119,120,121,122,123,124,125,126,127,128,129,130,131,132,133,134,135,136,137,138,139,140,141,142,143,144,145,146,147,148,149,150,151,152,153,154,155,156,157,158,159,160,161,162,163,164,165,166,167,168,169,170,171,172,173,174,175,176,177,178,179,180,181,182,183,184,185,186
0.9779411554336546,0.9264705777168274,0.6813725233078002,0.2450980395078659,0.15441176295280454,0.19117647409439087,0.1519607901573181,0.08578431606292723,0.05882352963089942,0.04901960864663124,0.04411764815449715,0.06127450987696649,0.06617647409439087,0.06127450987696649,0.04901960864663124,0.07352941483259201,0.06127450987696649,0.06127450987696649,0.06617647409439087,0.06862745434045793,0.09558823704719543,0.07598039507865906,0.09313725680112839,0.10539215803146361,0.1151960790157318,0.10294117778539656,0.11764705926179887,0.125,0.1421568691730499,0.12745098769664764,0.1519607901573181,0.14460784196853635,0.16421568393707278,0.14460784196853635,0.15931372344493863,0.1519607901573181,0.15441176295280454,0.1421568691730499,0.1519607901573181,0.1519607901573181,0.14705882966518402,0.13235294818878174,0.12745098769664764,0.1348039209842682,0.13725490868091586,0.11274509876966478,0.10784313827753068,0.10539215803146361,0.10784313827753068,0.09803921729326248,0.09313725680112839,0.10294117778539656,0.10049019753932954,0.10539215803146361,0.10294117778539656,0.11764705926179887,0.10539215803146361,0.12254901975393295,0.12745098769664764,0.1421568691730499,0.14705882966518402,0.14460784196853635,0.17401960492134091,0.2303921580314636,0.23774509131908414,0.2475490123033524,0.2303921580314636,0.22549019753932956,0.1985294073820114,0.1764705926179886,0.13235294818878174,0.125,0.11764705926179887,0.12254901975393295,0.11274509876966478,0.1299019604921341,0.1151960790157318,0.08333333581686017,0.0,0.06617647409439087,0.3063725531101227,0.6127451062202454,0.8602941036224365,1.0,0.9583333134651184,0.7450980544090272,0.3039215803146362,0.16421568393707278,0.20588235557079315,0.16421568393707278,0.10294117778539656,0.09558823704719543,0.09068627655506135,0.10049019753932954,0.09558823704719543,0.09803921729326248,0.09313725680112839,0.09803921729326248,0.09558823704719543,0.11274509876966478,0.0,0.0,0.0,0.0,0.0,0.0,0.0,0.0,0.0,0.0,0.0,0.0,0.0,0.0,0.0,0.0,0.0,0.0,0.0,0.0,0.0,0.0,0.0,0.0,0.0,0.0,0.0,0.0,0.0,0.0,0.0,0.0,0.0,0.0,0.0,0.0,0.0,0.0,0.0,0.0,0.0,0.0,0.0,0.0,0.0,0.0,0.0,0.0,0.0,0.0,0.0,0.0,0.0,0.0,0.0,0.0,0.0,0.0,0.0,0.0,0.0,0.0,0.0,0.0,0.0,0.0,0.0,0.0,0.0,0.0,0.0,0.0,0.0,0.0,0.0,0.0,0.0,0.0,0.0,0.0,0.0,0.0,0.0,0.0,0.0,0.0,0.0
0.9601139426231384,0.8632478713989258,0.461538463830948,0.19658119976520538,0.09401709586381912,0.12535612285137174,0.09971509873867035,0.0883190855383873,0.07407407462596892,0.08262108266353606,0.07407407462596892,0.06267806142568587,0.0655270665884018,0.0655270665884018,0.06267806142568587,0.07692307978868483,0.07122506946325301,0.08262108266353606,0.09116809070110321,0.09686609357595444,0.08262108266353606,0.08262108266353606,0.09116809070110321,0.10541310906410216,0.12250712513923645,0.14814814925193784,0.1823361814022064,0.19373218715190887,0.2136752158403397,0.20797720551490784,0.22222222387790683,0.25356125831604004,0.27065527439117437,0.28774929046630854,0.28490027785301203,0.2934472858905792,0.2564102709293365,0.2478632479906082,0.18803419172763824,0.14529915153980255,0.10826210677623747,0.08262108266353606,0.07977207750082016,0.07407407462596892,0.014245014637708666,0.011396011337637901,0.06267806142568587,0.05128205195069313,0.05698005855083466,0.04843304678797722,0.02849002927541733,0.031339030712842934,0.07692307978868483,0.025641025975346565,0.02849002927541733,0.037037037312984473,0.09401709586381912,0.08547008782625197,0.03988603875041008,0.05982905998826026,0.07407407462596892,0.07977207750082016,0.09116809070110321,0.09971509873867035,0.10826210677623747,0.0883190855383873,0.09116809070110321,0.0655270665884018,0.08547008782625197,0.0883190855383873,0.07692307978868483,0.08262108266353606,0.09686609357595444,0.09971509873867035,0.1339031308889389,0.10256410390138625,0.03988603875041008,0.0655270665884018,0.07407407462596892,0.08262108266353606,0.08547008782625197,0.05698005855083466,0.045584045350551605,0.10256410390138625,0.03988603875041008,0.011396011337637901,0.017094017937779427,0.031339030712842934,0.005698005668818951,0.008547008968889713,0.031339030712842934,0.05128205195069313,0.05698005855083466,0.0883190855383873,0.0655270665884018,0.011396011337637901,0.05698005855083466,0.03988603875041008,0.03988603875041008,0.025641025975346565,0.0028490028344094753,0.01994301937520504,0.025641025975346565,0.011396011337637901,0.02849002927541733,0.01994301937520504,0.022792022675275803,0.03418803587555885,0.014245014637708666,0.05128205195069313,0.0683760717511177,0.13960114121437073,0.28774929046630854,0.5270655155181884,0.7777777910232544,1.0,0.8888888955116273,0.4928774833679199,0.1908831894397736,0.0883190855383873,0.06267806142568587,0.03418803587555885,0.0,0.03418803587555885,0.017094017937779427,0.0028490028344094753,0.0,0.04843304678797722,0.04843304678797722,0.05413105338811873,0.042735043913125985,0.05413105338811873,0.05982905998826026,0.06267806142568587,0.07122506946325301,0.07692307978868483,0.09971509873867035,0.0,0.0,0.0,0.0,0.0,0.0,0.0,0.0,0.0,0.0,0.0,0.0,0.0,0.0,0.0,0.0,0.0,0.0,0.0,0.0,0.0,0.0,0.0,0.0,0.0,0.0,0.0,0.0,0.0,0.0,0.0,0.0,0.0,0.0,0.0,0.0,0.0,0.0,0.0,0.0,0.0,0.0,0.0,0.0,0.0,0.0,0.0,0.0,0.0,0.0
1.0,0.6594594717025756,0.18648648262023923,0.07027027010917664,0.07027027010917664,0.05945945903658866,0.05675675719976425,0.04324324429035187,0.05405405536293984,0.045945946127176285,0.05675675719976425,0.04324324429035187,0.0675675645470619,0.0621621608734131,0.07837837934494017,0.07297297567129134,0.08648648858070374,0.08108107745647432,0.10810811072587967,0.11081080883741377,0.1351351290941238,0.1351351290941238,0.17027026414871216,0.18378378450870514,0.21621622145175934,0.2378378361463547,0.2702702581882476,0.2864864766597748,0.31621623039245605,0.3189189136028289,0.3324324190616608,0.29729729890823364,0.26756757497787476,0.21621622145175934,0.18918919563293454,0.13243243098258972,0.1189189180731773,0.06486486643552779,0.06486486643552779,0.04324324429035187,0.05405405536293984,0.037837836891412735,0.04324324429035187,0.021621622145175934,0.045945946127176285,0.03513513505458832,0.05675675719976425,0.03513513505458832,0.037837836891412735,0.032432433217763894,0.04324324429035187,0.037837836891412735,0.05135134980082512,0.02972972951829433,0.04864864796400071,0.02972972951829433,0.05675675719976425,0.05135134980082512,0.07837837934494017,0.06486486643552779,0.09459459781646727,0.09729729592800142,0.11621621251106262,0.09459459781646727,0.09189189225435257,0.06486486643552779,0.0675675645470619,0.04054053872823716,0.04864864796400071,0.018918918445706367,0.021621622145175934,0.008108108304440973,0.02972972951829433,0.010810811072587969,0.021621622145175934,0.005405405536293984,0.032432433217763894,0.018918918445706367,0.021621622145175934,0.04054053872823716,0.24054053425788885,0.5891891717910767,0.9648648500442504,0.5837838053703308,0.12162162363529203,0.0,0.03513513505458832,0.03513513505458832,0.02702702768146992,0.021621622145175934,0.02972972951829433,0.010810811072587969,0.032432433217763894,0.021621622145175934,0.05135134980082512,0.0,0.0,0.0,0.0,0.0,0.0,0.0,0.0,0.0,0.0,0.0,0.0,0.0,0.0,0.0,0.0,0.0,0.0,0.0,0.0,0.0,0.0,0.0,0.0,0.0,0.0,0.0,0.0,0.0,0.0,0.0,0.0,0.0,0.0,0.0,0.0,0.0,0.0,0.0,0.0,0.0,0.0,0.0,0.0,0.0,0.0,0.0,0.0,0.0,0.0,0.0,0.0,0.0,0.0,0.0,0.0,0.0,0.0,0.0,0.0,0.0,0.0,0.0,0.0,0.0,0.0,0.0,0.0,0.0,0.0,0.0,0.0,0.0,0.0,0.0,0.0,0.0,0.0,0.0,0.0,0.0,0.0,0.0,0.0,0.0,0.0,0.0,0.0,0.0,0.0,0.0,0.0
0.9254143834114072,0.6657458543777466,0.541436493396759,0.27624309062957764,0.19613260030746457,0.07734806835651398,0.07182320207357408,0.06077348068356514,0.06629834324121475,0.05801105126738549,0.0635359138250351,0.0828729271888733,0.08563535660505295,0.09392265230417253,0.11325966566801073,0.12430939078330992,0.1408839821815491,0.1325966864824295,0.1408839821815491,0.09116022288799283,0.08563535660505295,0.07458563894033432,0.07182320207357408,0.08011049777269362,0.09668508172035215,0.11878453195095062,0.13812154531478882,0.1408839821815491,0.13812154531478882,0.1464088410139084,0.11049723625183104,0.10220994800329207,0.06077348068356514,0.027624309062957764,0.03867403417825699,0.013812154531478882,0.01104972418397665,0.013812154531478882,0.033149171620607376,0.005524862091988325,0.0,0.005524862091988325,0.0220994483679533,0.06629834324121475,0.08011049777269362,0.05801105126738549,0.06077348068356514,0.05801105126738549,0.09944751113653184,0.12430939078330992,0.17403315007686615,0.19613260030746457,0.2292817682027817,0.24033148586750036,0.265193372964859,0.23756906390190125,0.21823205053806305,0.19889502227306366,0.19889502227306366,0.19889502227306366,0.1712707132101059,0.16298343241214752,0.1850828677415848,0.19613260030746457,0.1712707132101059,0.1408839821815491,0.08563535660505295,0.0,0.005524862091988325,0.0027624310459941626,0.03591160103678704,0.04972375556826592,0.0635359138250351,0.11049723625183104,0.1215469613671303,0.13812154531478882,0.1408839821815491,0.16850829124450686,0.38950276374816895,0.7651933431625367,1.0,0.8535911440849304,0.6685082912445068,0.4585635364055634,0.32044199109077454,0.19337016344070435,0.1215469613671303,0.08011049777269362,0.0828729271888733,0.07182320207357408,0.05801105126738549,0.06629834324121475,0.0883977934718132,0.09668508172035215,0.09944751113653184,0.11049723625183104,0.0,0.0,0.0,0.0,0.0,0.0,0.0,0.0,0.0,0.0,0.0,0.0,0.0,0.0,0.0,0.0,0.0,0.0,0.0,0.0,0.0,0.0,0.0,0.0,0.0,0.0,0.0,0.0,0.0,0.0,0.0,0.0,0.0,0.0,0.0,0.0,0.0,0.0,0.0,0.0,0.0,0.0,0.0,0.0,0.0,0.0,0.0,0.0,0.0,0.0,0.0,0.0,0.0,0.0,0.0,0.0,0.0,0.0,0.0,0.0,0.0,0.0,0.0,0.0,0.0,0.0,0.0,0.0,0.0,0.0,0.0,0.0,0.0,0.0,0.0,0.0,0.0,0.0,0.0,0.0,0.0,0.0,0.0,0.0,0.0,0.0,0.0,0.0,0.0,0.0,0.0
0.9671361446380616,1.0,0.8309859037399293,0.5868544578552246,0.35680750012397766,0.2488262951374054,0.14553990960121155,0.08920187503099443,0.11737088859081267,0.1502347439527512,0.13145539164543152,0.1220657303929329,0.1408450752496719,0.15962441265583038,0.1502347439527512,0.14553990960121155,0.13615024089813232,0.1690140813589096,0.17840375006198883,0.17370891571044922,0.18309858441352844,0.20187793672084808,0.18779343366622925,0.16431924700736997,0.18779343366622925,0.21596243977546686,0.21596243977546686,0.20187793672084808,0.2112676054239273,0.23004694283008575,0.21596243977546686,0.23004694283008575,0.2394366264343261,0.26760563254356384,0.2535211145877838,0.23004694283008575,0.22065727412700653,0.2253521084785461,0.2112676054239273,0.17370891571044922,0.1502347439527512,0.1408450752496719,0.10798121988773345,0.0751173719763756,0.06103286519646644,0.07042253762483598,0.06103286519646644,0.05164319276809692,0.03286384791135788,0.07042253762483598,0.0422535203397274,0.01877934299409389,0.03286384791135788,0.03286384791135788,0.03286384791135788,0.028169013559818268,0.01877934299409389,0.01877934299409389,0.023474179208278656,0.0,0.00938967149704695,0.014084506779909134,0.028169013559818268,0.0,0.0,0.0422535203397274,0.023474179208278656,0.00938967149704695,0.023474179208278656,0.028169013559818268,0.03755868598818778,0.01877934299409389,0.014084506779909134,0.03755868598818778,0.0422535203397274,0.023474179208278656,0.014084506779909134,0.03755868598818778,0.0422535203397274,0.014084506779909134,0.03755868598818778,0.05164319276809692,0.04694835841655731,0.03755868598818778,0.03755868598818778,0.056338027119636536,0.056338027119636536,0.03286384791135788,0.03286384791135788,0.06572769582271576,0.056338027119636536,0.028169013559818268,0.04694835841655731,0.056338027119636536,0.06572769582271576,0.0422535203397274,0.06103286519646644,0.11737088859081267,0.1220657303929329,0.09859155118465424,0.09859155118465424,0.1126760542392731,0.10798121988773345,0.09389671683311462,0.10328638553619383,0.10798121988773345,0.0751173719763756,0.0422535203397274,0.04694835841655731,0.06572769582271576,0.07042253762483598,0.06572769582271576,0.10328638553619383,0.23474177718162534,0.4976525902748108,0.7464788556098939,0.8826290965080261,0.9530516266822816,0.9061033129692077,0.6807511448860168,0.4319248795509337,0.2488262951374054,0.14553990960121155,0.06103286519646644,0.06572769582271576,0.10328638553619383,0.10328638553619383,0.0845070406794548,0.09389671683311462,0.11737088859081267,0.1220657303929329,0.10798121988773345,0.1126760542392731,0.14553990960121155,0.15492957830429074,0.11737088859081267,0.1408450752496719,0.16431924700736997,0.1690140813589096,0.16431924700736997,0.0,0.0,0.0,0.0,0.0,0.0,0.0,0.0,0.0,0.0,0.0,0.0,0.0,0.0,0.0,0.0,0.0,0.0,0.0,0.0,0.0,0.0,0.0,0.0,0.0,0.0,0.0,0.0,0.0,0.0,0.0,0.0,0.0,0.0,0.0,0.0,0.0,0.0,0.0,0.0,0.0,0.0,0.0,0.0,0.0,0.0,0.0
0.9274611473083496,1.0,0.6269429922103882,0.19343696534633636,0.09499136358499528,0.07253886014223097,0.04317789152264596,0.053540587425231934,0.09326425194740297,0.1899827271699905,0.32815200090408325,0.4179620146751404,0.4265975952148438,0.4421416223049164,0.43350604176521296,0.4352331459522247,0.449050098657608,0.4352331459522247,0.40241795778274536,0.4041450917720794,0.4058721959590912,0.3903281390666962,0.369602769613266,0.37305700778961187,0.3678756356239319,0.3488773703575134,0.3177892863750458,0.31606218218803406,0.3195164203643799,0.32297062873840326,0.3246977627277374,0.33678755164146423,0.3592400550842285,0.3644214272499085,0.379965454339981,0.4075993001461029,0.4179620146751404,0.4300518035888672,0.4421416223049164,0.4525043070316314,0.4611398875713348,0.4766839444637299,0.4663212299346925,0.4766839444637299,0.4853195250034332,0.4732297062873839,0.4455958604812622,0.4680483639240265,0.4749568104743958,0.4576856791973114,0.4542314410209656,0.4663212299346925,0.4663212299346925,0.4576856791973114,0.4525043070316314,0.4576856791973114,0.4680483639240265,0.4542314410209656,0.4525043070316314,0.4611398875713348,0.4732297062873839,0.462867021560669,0.462867021560669,0.4697754681110383,0.4732297062873839,0.4663212299346925,0.4594127833843231,0.4697754681110383,0.4801381826400756,0.4835923910140991,0.4853195250034332,0.4991364479064941,0.5164076089859009,0.5008635520935059,0.4956822097301484,0.5457685589790343,0.5613126158714294,0.5302245020866394,0.5146805047988892,0.5423143506050109,0.5630397200584412,0.5405872464179992,0.4956822097301484,0.4974093139171601,0.4801381826400756,0.4594127833843231,0.4594127833843231,0.4576856791973114,0.4473229646682739,0.4404145181179047,0.4473229646682739,0.4542314410209656,0.4559585452079773,0.4576856791973114,0.4542314410209656,0.449050098657608,0.4525043070316314,0.5578583478927612,0.7530224323272705,0.7892918586730957,0.8739205598831176,0.9602763652801511,0.537132978439331,0.11398963630199432,0.05008635669946671,0.018998272716999054,0.0,0.00863557867705822,0.05008635669946671,0.11571675539016725,0.2556131184101105,0.37305700778961187,0.3989637196063995,0.40241795778274536,0.4179620146751404,0.42487046122550964,0.4214162230491639,0.41623488068580633,0.41450777649879456,0.41968911886215204,0.0,0.0,0.0,0.0,0.0,0.0,0.0,0.0,0.0,0.0,0.0,0.0,0.0,0.0,0.0,0.0,0.0,0.0,0.0,0.0,0.0,0.0,0.0,0.0,0.0,0.0,0.0,0.0,0.0,0.0,0.0,0.0,0.0,0.0,0.0,0.0,0.0,0.0,0.0,0.0,0.0,0.0,0.0,0.0,0.0,0.0,0.0,0.0,0.0,0.0,0.0,0.0,0.0,0.0,0.0,0.0,0.0,0.0,0.0,0.0,0.0,0.0,0.0,0.0,0.0,0.0,0.0
0.4236111044883728,0.7916666865348815,1.0,0.25694444775581354,0.0,0.27777779102325445,0.4652777910232544,0.5208333134651184,0.4722222089767456,0.5555555820465089,0.5347222089767456,0.5902777910232544,0.5763888955116271,0.5972222089767456,0.5763888955116271,0.5972222089767456,0.5763888955116271,0.625,0.6111111044883727,0.6527777910232544,0.625,0.6597222089767456,0.6527777910232544,0.6875,0.6666666865348815,0.7152777910232544,0.7222222089767456,0.7638888955116273,0.7708333134651185,0.8263888955116273,0.8333333134651185,0.8958333134651185,0.9236111044883726,0.9583333134651184,0.9444444179534912,0.9652777910232546,0.9027777910232546,0.875,0.7430555820465088,0.75,0.6805555820465088,0.6805555820465088,0.6319444179534912,0.6319444179534912,0.6111111044883727,0.6180555820465088,0.6111111044883727,0.6319444179534912,0.5833333134651185,0.5625,0.5486111044883729,0.5763888955116271,0.5555555820465089,0.5833333134651185,0.5625,0.5972222089767456,0.5555555820465089,0.6111111044883727,0.5833333134651185,0.6041666865348815,0.5763888955116271,0.5833333134651185,0.5069444179534911,0.5763888955116271,0.5347222089767456,0.5902777910232544,0.5347222089767456,0.5486111044883729,0.5277777910232544,0.5277777910232544,0.5138888955116271,0.5416666865348816,0.4861111044883729,0.5416666865348816,0.5,0.5416666865348816,0.5069444179534911,0.5277777910232544,0.4930555522441863,0.5277777910232544,0.5,0.5277777910232544,0.5069444179534911,0.5347222089767456,0.5555555820465089,0.5833333134651185,0.5625,0.6041666865348815,0.5625,0.5138888955116271,0.4791666567325592,0.5347222089767456,0.4861111044883729,0.5694444179534911,0.4861111044883729,0.44444444775581365,0.41666665673255926,0.4861111044883729,0.43055555224418635,0.4513888955116272,0.4236111044883728,0.4791666567325592,0.4375,0.44444444775581365,0.41666665673255926,0.4930555522441863,0.5208333134651184,0.6041666865348815,0.4791666567325592,0.4236111044883728,0.2291666716337204,0.5069444179534911,0.7013888955116273,0.1180555522441864,0.013888888992369175,0.2708333432674408,0.39583334326744074,0.4513888955116272,0.44444444775581365,0.5069444179534911,0.4652777910232544,0.4861111044883729,0.4722222089767456,0.5347222089767456,0.4930555522441863,0.5416666865348816,0.4930555522441863,0.5555555820465089,0.5208333134651184,0.5625,0.5277777910232544,0.0,0.0,0.0,0.0,0.0,0.0,0.0,0.0,0.0,0.0,0.0,0.0,0.0,0.0,0.0,0.0,0.0,0.0,0.0,0.0,0.0,0.0,0.0,0.0,0.0,0.0,0.0,0.0,0.0,0.0,0.0,0.0,0.0,0.0,0.0,0.0,0.0,0.0,0.0,0.0,0.0,0.0,0.0,0.0,0.0,0.0,0.0,0.0,0.0,0.0,0.0,0.0,0.0,0.0,0.0,0.0
0.7168141603469848,0.5398229956626892,0.28318583965301514,0.12979350984096527,0.06489675492048264,0.07669616490602493,0.026548672467470173,0.03244837746024132,0.008849557489156723,0.044247787445783615,0.02064896747469902,0.0,0.0029498524963855743,0.026548672467470173,0.0678466111421585,0.08259586989879608,0.13864307105541226,0.16519173979759216,0.2123893797397613,0.22123894095420837,0.24483776092529294,0.2418879121541977,0.25958701968193054,0.28318583965301514,0.262536883354187,0.27433627843856806,0.2654867172241211,0.2802359759807586,0.2566371560096741,0.23008850216865534,0.2123893797397613,0.2271386384963989,0.2035398185253144,0.23598819971084595,0.19764012098312378,0.2182890921831131,0.20943953096866608,0.22418878972530365,0.20943953096866608,0.22123894095420837,0.18584071099758148,0.2330383509397507,0.20943953096866608,0.2271386384963989,0.21533922851085666,0.2330383509397507,0.2035398185253144,0.19174040853977203,0.2035398185253144,0.20058996975421906,0.18879055976867679,0.27138644456863403,0.22418878972530365,0.23008850216865534,0.2418879121541977,0.2389380484819412,0.22418878972530365,0.22418878972530365,0.24483776092529294,0.23598819971084595,0.20648968219757083,0.23598819971084595,0.20943953096866608,0.2035398185253144,0.2035398185253144,0.21533922851085666,0.20058996975421906,0.19764012098312378,0.2035398185253144,0.22418878972530365,0.20648968219757083,0.28318583965301514,0.3864306807518004,0.5191740393638611,0.6194690465927124,0.8407079577445984,0.8938053250312805,1.0,0.9233038425445556,0.7109144330024719,0.33333334326744074,0.23008850216865534,0.18584071099758148,0.1592920422554016,0.13864307105541226,0.09734513610601422,0.06194690242409705,0.0,0.0,0.0,0.0,0.0,0.0,0.0,0.0,0.0,0.0,0.0,0.0,0.0,0.0,0.0,0.0,0.0,0.0,0.0,0.0,0.0,0.0,0.0,0.0,0.0,0.0,0.0,0.0,0.0,0.0,0.0,0.0,0.0,0.0,0.0,0.0,0.0,0.0,0.0,0.0,0.0,0.0,0.0,0.0,0.0,0.0,0.0,0.0,0.0,0.0,0.0,0.0,0.0,0.0,0.0,0.0,0.0,0.0,0.0,0.0,0.0,0.0,0.0,0.0,0.0,0.0,0.0,0.0,0.0,0.0,0.0,0.0,0.0,0.0,0.0,0.0,0.0,0.0,0.0,0.0,0.0,0.0,0.0,0.0,0.0,0.0,0.0,0.0,0.0,0.0,0.0,0.0,0.0,0.0,0.0,0.0,0.0,0.0,0.0,0.0
0.8742138147354126,0.849056601524353,0.4800838530063628,0.05870021134614944,0.09014675021171568,0.31027254462242126,0.3878406584262848,0.3857442438602448,0.38993710279464716,0.3920335471630096,0.3962264060974121,0.40251570940017695,0.4129979014396667,0.4129979014396667,0.4150943458080292,0.4339622557163239,0.4423480033874512,0.44444444775581365,0.4528301954269409,0.4696016907691956,0.4842767417430877,0.4968553483486176,0.507337510585785,0.5283018946647644,0.5471698045730592,0.5576519966125488,0.5555555820465089,0.5702306032180786,0.5828092098236084,0.5807127952575684,0.5744234919548035,0.5765199065208435,0.5618448853492737,0.5262054800987245,0.49895179271698,0.4779874086380005,0.44863730669021606,0.4255765080451965,0.4088050425052642,0.3983228504657744,0.3962264060974121,0.38993710279464716,0.37945494055747997,0.37945494055747997,0.3857442438602448,0.3710691928863525,0.37526205182075506,0.37945494055747997,0.3857442438602448,0.3836477994918823,0.3857442438602448,0.3920335471630096,0.3920335471630096,0.3857442438602448,0.38155135512351995,0.3857442438602448,0.3920335471630096,0.38155135512351995,0.37735849618911743,0.37945494055747997,0.3836477994918823,0.3689727485179901,0.3689727485179901,0.3731656074523926,0.3731656074523926,0.36687630414962763,0.3626834452152252,0.3689727485179901,0.3689727485179901,0.3647798597812653,0.3647798597812653,0.36687630414962763,0.3710691928863525,0.36687630414962763,0.3647798597812653,0.36687630414962763,0.3689727485179901,0.3689727485179901,0.3689727485179901,0.3857442438602448,0.4067085981369018,0.4067085981369018,0.4192872047424317,0.42976939678192133,0.43186584115028387,0.4255765080451965,0.4109014570713043,0.3962264060974121,0.3941299915313721,0.37526205182075506,0.3584905564785004,0.36687630414962763,0.3710691928863525,0.3647798597812653,0.3605870008468628,0.3731656074523926,0.37945494055747997,0.36687630414962763,0.37526205182075506,0.3878406584262848,0.40251570940017695,0.43605870008468633,0.6016771197319031,0.8427672982215882,1.0,0.7924528121948242,0.32285115122795105,0.0,0.15932914614677426,0.38155135512351995,0.427672952413559,0.4234800934791565,0.42976939678192133,0.427672952413559,0.43186584115028387,0.44444444775581365,0.4528301954269409,0.446540892124176,0.454926609992981,0.4654088020324707,0.4779874086380005,0.4863731563091278,0.4863731563091278,0.50104820728302,0.5178197026252747,0.5157232880592345,0.0,0.0,0.0,0.0,0.0,0.0,0.0,0.0,0.0,0.0,0.0,0.0,0.0,0.0,0.0,0.0,0.0,0.0,0.0,0.0,0.0,0.0,0.0,0.0,0.0,0.0,0.0,0.0,0.0,0.0,0.0,0.0,0.0,0.0,0.0,0.0,0.0,0.0,0.0,0.0,0.0,0.0,0.0,0.0,0.0,0.0,0.0,0.0,0.0,0.0,0.0,0.0,0.0,0.0,0.0,0.0,0.0,0.0,0.0,0.0,0.0
1.0,0.996086120605469,0.6947162151336669,0.33659490942955017,0.2387475520372391,0.2681017518043518,0.19178082048892972,0.17416830360889432,0.1643835604190826,0.18786692619323728,0.18982388079166407,0.1526418775320053,0.13307240605354306,0.162426620721817,0.1526418775320053,0.11937377601861952,0.12915851175785065,0.1428571492433548,0.127201572060585,0.10958904027938841,0.09393346309661864,0.0802348330616951,0.06457925587892532,0.03718199580907822,0.017612524330615997,0.003913894295692445,0.003913894295692445,0.0,0.017612524330615997,0.039138942956924445,0.06457925587892532,0.08806262165307999,0.127201572060585,0.15459883213043213,0.18786692619323728,0.18982388079166407,0.18003913760185242,0.20743639767169952,0.19569471478462214,0.17416830360889432,0.19569471478462214,0.19178082048892972,0.17416830360889432,0.18199609220027924,0.18786692619323728,0.1702544093132019,0.18199609220027924,0.17808219790458682,0.18199609220027924,0.18590998649597168,0.22113503515720367,0.22896282374858856,0.22700586915016174,0.2681017518043518,0.29745596647262573,0.2622309327125549,0.2563600838184357,0.2661448121070861,0.24070450663566584,0.20352250337600708,0.1663405150175095,0.1663405150175095,0.16829745471477509,0.1467710435390472,0.14481408894062042,0.14481408894062042,0.127201572060585,0.20939335227012637,0.43835616111755366,0.6712328791618348,0.8669275641441345,0.888454020023346,0.6164383292198181,0.24070450663566584,0.13307240605354306,0.13307240605354306,0.08610567450523376,0.056751467287540436,0.07436399161815643,0.06066536158323287,0.0,0.0,0.0,0.0,0.0,0.0,0.0,0.0,0.0,0.0,0.0,0.0,0.0,0.0,0.0,0.0,0.0,0.0,0.0,0.0,0.0,0.0,0.0,0.0,0.0,0.0,0.0,0.0,0.0,0.0,0.0,0.0,0.0,0.0,0.0,0.0,0.0,0.0,0.0,0.0,0.0,0.0,0.0,0.0,0.0,0.0,0.0,0.0,0.0,0.0,0.0,0.0,0.0,0.0,0.0,0.0,0.0,0.0,0.0,0.0,0.0,0.0,0.0,0.0,0.0,0.0,0.0,0.0,0.0,0.0,0.0,0.0,0.0,0.0,0.0,0.0,0.0,0.0,0.0,0.0,0.0,0.0,0.0,0.0,0.0,0.0,0.0,0.0,0.0,0.0,0.0,0.0,0.0,0.0,0.0,0.0,0.0,0.0,0.0,0.0,0.0,0.0,0.0,0.0,0.0,0.0,0.0
0.9855072498321534,0.880434811115265,0.5181159377098083,0.21376810967922208,0.12681159377098083,0.11956521868705745,0.08333333581686017,0.07971014827489856,0.06521739065647125,0.06884057819843292,0.061594203114509576,0.06521739065647125,0.0362318828701973,0.025362318381667134,0.007246376946568489,0.0036231884732842445,0.0,0.014492753893136978,0.021739130839705467,0.028985507786273956,0.03985507413744927,0.04710144922137261,0.05797101557254791,0.06521739065647125,0.05797101557254791,0.09057971090078351,0.09057971090078351,0.08333333581686017,0.07608695328235625,0.09057971090078351,0.10507246106863022,0.13768115639686584,0.13405796885490415,0.16666667163372037,0.15942029654979706,0.16666667163372037,0.15942029654979706,0.16666667163372037,0.14855071902275085,0.14855071902275085,0.14855071902275085,0.16666667163372037,0.15942029654979706,0.16666667163372037,0.15942029654979706,0.17028985917568204,0.17028985917568204,0.18478260934352878,0.18115942180156708,0.1775362342596054,0.16304348409175873,0.16666667163372037,0.1521739065647125,0.15942029654979706,0.1557970941066742,0.16666667163372037,0.1557970941066742,0.15942029654979706,0.14492753148078918,0.1521739065647125,0.1557970941066742,0.1521739065647125,0.15942029654979706,0.16304348409175873,0.14492753148078918,0.17028985917568204,0.1521739065647125,0.1521739065647125,0.1557970941066742,0.16666667163372037,0.16304348409175873,0.17028985917568204,0.1739130467176437,0.1775362342596054,0.16304348409175873,0.21014492213726044,0.445652186870575,0.717391312122345,0.97826087474823,1.0,0.79347825050354,0.3405797183513641,0.19565217196941373,0.12318840622901918,0.08695652335882187,0.06521739065647125,0.05434782430529593,0.04710144922137261,0.025362318381667134,0.032608695328235626,0.0,0.014492753893136978,0.021739130839705467,0.028985507786273956,0.032608695328235626,0.0,0.0,0.0,0.0,0.0,0.0,0.0,0.0,0.0,0.0,0.0,0.0,0.0,0.0,0.0,0.0,0.0,0.0,0.0,0.0,0.0,0.0,0.0,0.0,0.0,0.0,0.0,0.0,0.0,0.0,0.0,0.0,0.0,0.0,0.0,0.0,0.0,0.0,0.0,0.0,0.0,0.0,0.0,0.0,0.0,0.0,0.0,0.0,0.0,0.0,0.0,0.0,0.0,0.0,0.0,0.0,0.0,0.0,0.0,0.0,0.0,0.0,0.0,0.0,0.0,0.0,0.0,0.0,0.0,0.0,0.0,0.0,0.0,0.0,0.0,0.0,0.0,0.0,0.0,0.0,0.0,0.0,0.0,0.0,0.0,0.0,0.0,0.0,0.0,0.0,0.0,0.0
1.0,0.6575630307197571,0.1785714328289032,0.1785714328289032,0.13655462861061096,0.03571428731083869,0.021008403971791267,0.06722689419984819,0.15966387093067166,0.25210085511207586,0.29411765933036804,0.3025210201740265,0.3046218454837799,0.31302520632743835,0.325630247592926,0.31932774186134333,0.3172268867492676,0.32983192801475525,0.3382352888584137,0.3361344635486603,0.3340336084365845,0.3340336084365845,0.3445378243923187,0.34663864970207214,0.3445378243923187,0.3529411852359772,0.3634453713893889,0.3697479069232941,0.3718487322330474,0.3802520930767059,0.3928571343421936,0.3886554539203644,0.3928571343421936,0.40336135029792797,0.4201680719852448,0.41806721687316895,0.42226889729499817,0.43487393856048573,0.4537815153598785,0.4642857015132904,0.4684873819351196,0.4831932783126831,0.4978991448879241,0.4957983195781708,0.4915966391563416,0.4831932783126831,0.4684873819351196,0.4411764740943909,0.41386553645133967,0.39495798945426946,0.37394958734512324,0.3592436909675598,0.34663864970207214,0.3361344635486603,0.3382352888584137,0.3361344635486603,0.33193278312683105,0.3361344635486603,0.3424369692802429,0.34873950481414795,0.3445378243923187,0.34663864970207214,0.34873950481414795,0.34873950481414795,0.33193278312683105,0.34033614397048956,0.3424369692802429,0.32983192801475525,0.3235294222831726,0.325630247592926,0.325630247592926,0.3172268867492676,0.31302520632743835,0.3151260614395142,0.31932774186134333,0.31302520632743835,0.3025210201740265,0.3046218454837799,0.30882352590560913,0.3025210201740265,0.29831933975219727,0.3025210201740265,0.31092438101768494,0.30882352590560913,0.3025210201740265,0.30882352590560913,0.31092438101768494,0.30042016506195063,0.30042016506195063,0.3046218454837799,0.31092438101768494,0.3151260614395142,0.3172268867492676,0.32773110270500183,0.3361344635486603,0.3424369692802429,0.3613445460796356,0.37815126776695246,0.3676470518112183,0.3508403301239014,0.3445378243923187,0.32773110270500183,0.31302520632743835,0.3025210201740265,0.29621848464012146,0.3046218454837799,0.3025210201740265,0.29411765933036804,0.2920168042182922,0.29411765933036804,0.30042016506195063,0.3046218454837799,0.27731093764305115,0.2100840359926224,0.2394957989454269,0.5945377945899963,0.9810924530029298,0.75,0.25210085511207586,0.19747899472713473,0.14075630903244016,0.010504201985895632,0.0,0.08613445609807968,0.1953781545162201,0.2605042159557342,0.2857142984867096,0.2899159789085388,0.2899159789085388,0.3046218454837799,0.30882352590560913,0.3151260614395142,0.31302520632743835,0.31932774186134333,0.3235294222831726,0.325630247592926,0.32773110270500183,0.3361344635486603,0.3445378243923187,0.34873950481414795,0.0,0.0,0.0,0.0,0.0,0.0,0.0,0.0,0.0,0.0,0.0,0.0,0.0,0.0,0.0,0.0,0.0,0.0,0.0,0.0,0.0,0.0,0.0,0.0,0.0,0.0,0.0,0.0,0.0,0.0,0.0,0.0,0.0,0.0,0.0,0.0,0.0,0.0,0.0,0.0,0.0,0.0,0.0,0.0,0.0,0.0,0.0
0.9867374300956726,0.9628646969795228,0.8090185523033142,0.35809019207954407,0.08222811669111252,0.1618037074804306,0.13793103396892548,0.07957559823989868,0.03183024004101753,0.06366048008203506,0.0663129985332489,0.07957559823989868,0.05835543945431707,0.07692307978868483,0.07161803543567657,0.07427055388689041,0.06896551698446274,0.07957559823989868,0.08222811669111252,0.07957559823989868,0.07161803543567657,0.09549071639776227,0.08488063514232635,0.11140583455562593,0.08488063514232635,0.10610079765319824,0.12201591581106185,0.11671087890863414,0.11671087890863414,0.13527850806713104,0.13527850806713104,0.14058355987071994,0.1273209601640701,0.15915119647979736,0.15384615957736966,0.15119363367557523,0.12466843426227568,0.15119363367557523,0.13793103396892548,0.13527850806713104,0.12201591581106185,0.13527850806713104,0.13527850806713104,0.11671087890863414,0.11140583455562593,0.12201591581106185,0.1087533161044121,0.09814323484897611,0.09018567949533463,0.0875331535935402,0.09814323484897611,0.07427055388689041,0.07427055388689041,0.09018567949533463,0.09549071639776227,0.10079575330018994,0.08222811669111252,0.11405835300683975,0.1273209601640701,0.13527850806713104,0.14058355987071994,0.18037135899066925,0.2068965584039688,0.230769231915474,0.2068965584039688,0.22546419501304624,0.20954906940460205,0.18832890689373016,0.17241379618644712,0.1326259970664978,0.11140583455562593,0.0875331535935402,0.06366048008203506,0.07957559823989868,0.08222811669111252,0.07692307978868483,0.05039787665009498,0.0026525198481976986,0.0,0.2413793057203293,0.575596809387207,0.8912466764450074,1.0,0.9389920234680176,0.702917754650116,0.2334217578172684,0.08222811669111252,0.14854110777378082,0.09283819794654848,0.05039787665009498,0.03448275849223137,0.03183024004101753,0.029177719727158536,0.037135276943445206,0.04509283974766731,0.03978779911994934,0.037135276943445206,0.04774535819888115,0.0,0.0,0.0,0.0,0.0,0.0,0.0,0.0,0.0,0.0,0.0,0.0,0.0,0.0,0.0,0.0,0.0,0.0,0.0,0.0,0.0,0.0,0.0,0.0,0.0,0.0,0.0,0.0,0.0,0.0,0.0,0.0,0.0,0.0,0.0,0.0,0.0,0.0,0.0,0.0,0.0,0.0,0.0,0.0,0.0,0.0,0.0,0.0,0.0,0.0,0.0,0.0,0.0,0.0,0.0,0.0,0.0,0.0,0.0,0.0,0.0,0.0,0.0,0.0,0.0,0.0,0.0,0.0,0.0,0.0,0.0,0.0,0.0,0.0,0.0,0.0,0.0,0.0,0.0,0.0,0.0,0.0,0.0,0.0,0.0,0.0,0.0,0.0,0.0
1.0,0.9126505851745602,0.5933734774589539,0.04518072307109833,0.03614457696676255,0.1777108460664749,0.3162650465965271,0.3433735072612762,0.3765060305595398,0.37349396944046015,0.4096385538578034,0.4036144614219666,0.4307228922843933,0.42771083116531367,0.4487951695919037,0.4608433842658996,0.4879518151283263,0.4879518151283263,0.5391566157341005,0.5391566157341005,0.5843373537063599,0.5873494148254395,0.6204819083213806,0.6204819083213806,0.6234939694404602,0.6174699068069458,0.6385542154312133,0.6174699068069458,0.6144578456878662,0.5662650465965271,0.5481927990913391,0.5,0.4909638464450835,0.4487951695919037,0.4307228922843933,0.3945783078670502,0.391566276550293,0.37349396944046015,0.3885542154312134,0.358433723449707,0.36746987700462336,0.358433723449707,0.36746987700462336,0.3524096310138702,0.37349396944046015,0.36445784568786627,0.3825301229953766,0.37048193812370306,0.391566276550293,0.38554215431213373,0.4036144614219666,0.3885542154312134,0.4216867387294769,0.4216867387294769,0.4427710771560669,0.4337349534034729,0.42771083116531367,0.3975903689861298,0.4096385538578034,0.38554215431213373,0.4036144614219666,0.3765060305595398,0.37349396944046015,0.349397599697113,0.37048193812370306,0.3463855385780334,0.36746987700462336,0.3433735072612762,0.36144578456878657,0.33734938502311707,0.3554216921329498,0.3524096310138702,0.36144578456878657,0.3433735072612762,0.358433723449707,0.3403614461421966,0.36445784568786627,0.3313252925872803,0.33734938502311707,0.358433723449707,0.5843373537063599,0.8524096608161926,0.9909638762474062,0.7620481848716736,0.4759036004543304,0.0,0.009036144241690637,0.1325301229953766,0.2680722773075104,0.3253012001514434,0.36746987700462336,0.3524096310138702,0.3765060305595398,0.37349396944046015,0.4126506149768829,0.4096385538578034,0.4397590458393097,0.0,0.0,0.0,0.0,0.0,0.0,0.0,0.0,0.0,0.0,0.0,0.0,0.0,0.0,0.0,0.0,0.0,0.0,0.0,0.0,0.0,0.0,0.0,0.0,0.0,0.0,0.0,0.0,0.0,0.0,0.0,0.0,0.0,0.0,0.0,0.0,0.0,0.0,0.0,0.0,0.0,0.0,0.0,0.0,0.0,0.0,0.0,0.0,0.0,0.0,0.0,0.0,0.0,0.0,0.0,0.0,0.0,0.0,0.0,0.0,0.0,0.0,0.0,0.0,0.0,0.0,0.0,0.0,0.0,0.0,0.0,0.0,0.0,0.0,0.0,0.0,0.0,0.0,0.0,0.0,0.0,0.0,0.0,0.0,0.0,0.0,0.0,0.0,0.0,0.0
1.0,0.4771573543548584,0.06091370433568954,0.07360406219959259,0.08883249014616013,0.043147206306457526,0.03553299605846405,0.027918782085180286,0.015228426083922384,0.015228426083922384,0.007614213041961192,0.0,0.010152284055948256,0.020304568111896515,0.007614213041961192,0.015228426083922384,0.022842640057206157,0.020304568111896515,0.022842640057206157,0.007614213041961192,0.017766498029232025,0.04060913622379303,0.03299492225050926,0.015228426083922384,0.03807106614112855,0.053299494087696075,0.043147206306457526,0.043147206306457526,0.05583756417036057,0.07868020236492158,0.07360406219959259,0.0685279220342636,0.08375634253025056,0.0964467003941536,0.10406091064214705,0.10406091064214705,0.12436547875404358,0.13451775908470154,0.14467005431652066,0.1573604047298431,0.1649746149778366,0.1878172606229782,0.20558375120162964,0.21319797635078433,0.22081218659877774,0.22588832676410675,0.24365481734275815,0.2639593780040741,0.2588832378387452,0.2791878283023834,0.27157360315322876,0.2411167472600937,0.2411167472600937,0.23604060709476474,0.1928934007883072,0.17512691020965576,0.1649746149778366,0.1522842645645142,0.1294416189193726,0.10659898817539216,0.10152284055948256,0.0964467003941536,0.0913705602288246,0.08121827244758606,0.08121827244758606,0.08121827244758606,0.07360406219959259,0.07868020236492158,0.0761421322822571,0.0761421322822571,0.07360406219959259,0.07868020236492158,0.0761421322822571,0.0913705602288246,0.08883249014616013,0.06598984450101852,0.06091370433568954,0.08629441261291505,0.08121827244758606,0.0710659921169281,0.10152284055948256,0.11421319842338562,0.12436547875404358,0.1192893385887146,0.1421319842338562,0.14467005431652066,0.1218274086713791,0.0939086303114891,0.08121827244758606,0.05837563425302505,0.027918782085180286,0.017766498029232025,0.025380710139870644,0.027918782085180286,0.022842640057206157,0.017766498029232025,0.025380710139870644,0.017766498029232025,0.022842640057206157,0.010152284055948256,0.017766498029232025,0.027918782085180286,0.020304568111896515,0.010152284055948256,0.015228426083922384,0.020304568111896515,0.025380710139870644,0.010152284055948256,0.010152284055948256,0.0,0.0,0.0,0.0,0.0,0.0,0.0,0.0,0.0,0.0,0.0,0.0,0.0,0.0,0.0,0.0,0.0,0.0,0.0,0.0,0.0,0.0,0.0,0.0,0.0,0.0,0.0,0.0,0.0,0.0,0.0,0.0,0.0,0.0,0.0,0.0,0.0,0.0,0.0,0.0,0.0,0.0,0.0,0.0,0.0,0.0,0.0,0.0,0.0,0.0,0.0,0.0,0.0,0.0,0.0,0.0,0.0,0.0,0.0,0.0,0.0,0.0,0.0,0.0,0.0,0.0,0.0,0.0,0.0,0.0,0.0,0.0,0.0,0.0,0.0,0.0,0.0,0.0
0.9856321811676024,0.7859195470809935,0.3591954112052917,0.09626436978578568,0.04310344904661178,0.1451149433851242,0.19683907926082608,0.17528735101222992,0.15660919249057767,0.15948276221752167,0.17241379618644712,0.1551724076271057,0.1465517282485962,0.16091954708099362,0.1709770113229752,0.17528735101222992,0.17241379618644712,0.19252873957157132,0.2155172377824784,0.2284482717514038,0.24856321513652796,0.27442529797554016,0.29166665673255926,0.31609195470809937,0.3433907926082611,0.3649425208568573,0.395114928483963,0.41091954708099365,0.4295977056026458,0.4511494338512421,0.4497126340866089,0.44683909416198725,0.4310344755649568,0.4181034564971924,0.4037356376647949,0.36925286054611206,0.3477011620998382,0.33764368295669556,0.30890804529190063,0.2787356376647949,0.27155172824859614,0.25143676996231074,0.2399425357580185,0.2327586263418198,0.22413793206214905,0.2385057508945465,0.2385057508945465,0.2327586263418198,0.2399425357580185,0.2370689660310745,0.2643678188323974,0.2902298867702484,0.29741379618644714,0.31896552443504333,0.3290229737758636,0.2959770262241364,0.25143676996231074,0.2284482717514038,0.22557471692562106,0.21839080750942233,0.21408045291900638,0.22557471692562106,0.2284482717514038,0.21839080750942233,0.2284482717514038,0.2212643623352051,0.2040229886770248,0.3477011620998382,0.7054597735404968,1.0,0.8663793206214904,0.4928160905838012,0.14798851311206815,0.0,0.0933908075094223,0.1537356376647949,0.12643678486347198,0.1149425283074379,0.1163793131709099,0.10057470947504045,0.09913793206214903,0.10057470947504045,0.09770114719867705,0.0,0.0,0.0,0.0,0.0,0.0,0.0,0.0,0.0,0.0,0.0,0.0,0.0,0.0,0.0,0.0,0.0,0.0,0.0,0.0,0.0,0.0,0.0,0.0,0.0,0.0,0.0,0.0,0.0,0.0,0.0,0.0,0.0,0.0,0.0,0.0,0.0,0.0,0.0,0.0,0.0,0.0,0.0,0.0,0.0,0.0,0.0,0.0,0.0,0.0,0.0,0.0,0.0,0.0,0.0,0.0,0.0,0.0,0.0,0.0,0.0,0.0,0.0,0.0,0.0,0.0,0.0,0.0,0.0,0.0,0.0,0.0,0.0,0.0,0.0,0.0,0.0,0.0,0.0,0.0,0.0,0.0,0.0,0.0,0.0,0.0,0.0,0.0,0.0,0.0,0.0,0.0,0.0,0.0,0.0,0.0,0.0,0.0,0.0,0.0,0.0,0.0,0.0,0.0
1.0,0.8727272748947142,0.358441561460495,0.05714285746216774,0.06493506580591202,0.09090909361839294,0.06493506580591202,0.04935064911842346,0.062337663024663925,0.04415584355592729,0.04935064911842346,0.05194805189967155,0.05714285746216774,0.05454545468091965,0.05974026024341584,0.062337663024663925,0.062337663024663925,0.05714285746216774,0.07532467693090439,0.07532467693090439,0.07272727042436597,0.06753246486186981,0.08311688154935837,0.08831168711185454,0.10129870474338531,0.09350649267435071,0.09610389918088913,0.10909090936183928,0.10129870474338531,0.09870129823684692,0.10389610379934312,0.11688311398029327,0.11168830841779709,0.12987013161182404,0.137662336230278,0.145454540848732,0.145454540848732,0.14025974273681643,0.13506492972373962,0.13246753811836243,0.12727272510528562,0.12207791954278945,0.12467532604932785,0.12467532604932785,0.13506492972373962,0.10909090936183928,0.11948052048683168,0.137662336230278,0.11948052048683168,0.12987013161182404,0.12727272510528562,0.14025974273681643,0.12987013161182404,0.12467532604932785,0.12727272510528562,0.14025974273681643,0.12207791954278945,0.12467532604932785,0.11948052048683168,0.12987013161182404,0.11948052048683168,0.11948052048683168,0.13506492972373962,0.15584415197372434,0.15844155848026276,0.1688311696052551,0.19220779836177826,0.19740259647369382,0.18701298534870148,0.1688311696052551,0.16623376309871674,0.137662336230278,0.11168830841779709,0.07532467693090439,0.07272727042436597,0.07272727042436597,0.07272727042436597,0.05714285746216774,0.07272727042436597,0.06493506580591202,0.05714285746216774,0.15064935386180878,0.3922078013420105,0.7584415674209594,0.9558441638946532,0.6831169128417969,0.2493506520986557,0.036363635212183,0.05194805189967155,0.05194805189967155,0.015584415756165981,0.018181817606091492,0.012987012974917887,0.005194805096834898,0.0,0.012987012974917887,0.010389610193669798,0.005194805096834898,0.005194805096834898,0.020779220387339592,0.0,0.0,0.0,0.0,0.0,0.0,0.0,0.0,0.0,0.0,0.0,0.0,0.0,0.0,0.0,0.0,0.0,0.0,0.0,0.0,0.0,0.0,0.0,0.0,0.0,0.0,0.0,0.0,0.0,0.0,0.0,0.0,0.0,0.0,0.0,0.0,0.0,0.0,0.0,0.0,0.0,0.0,0.0,0.0,0.0,0.0,0.0,0.0,0.0,0.0,0.0,0.0,0.0,0.0,0.0,0.0,0.0,0.0,0.0,0.0,0.0,0.0,0.0,0.0,0.0,0.0,0.0,0.0,0.0,0.0,0.0,0.0,0.0,0.0,0.0,0.0,0.0,0.0,0.0,0.0,0.0,0.0,0.0,0.0,0.0,0.0,0.0
0.9860724210739136,0.5069637894630432,0.35097491741180414,0.21448467671871185,0.133704736828804,0.09749303758144376,0.08356545865535736,0.09192200750112531,0.07242339849472045,0.07242339849472045,0.07242339849472045,0.07242339849472045,0.06963787972927094,0.07242339849472045,0.06685236841440201,0.07520891726016998,0.06406684964895247,0.07520891726016998,0.07242339849472045,0.08077994734048843,0.06685236841440201,0.07520891726016998,0.06963787972927094,0.08635097742080688,0.08077994734048843,0.0891364887356758,0.09749303758144376,0.11142061650753021,0.1197771579027176,0.14484679698944092,0.1532033383846283,0.18941503763198847,0.1977715939283371,0.21727019548416135,0.22562673687934875,0.2395543158054352,0.2395543158054352,0.2506963908672333,0.22841225564479825,0.22005571424961087,0.1977715939283371,0.17270195484161374,0.1559888571500778,0.13927575945854187,0.11699164658784865,0.12256267666816713,0.11142061650753021,0.11699164658784865,0.10863509774208067,0.11142061650753021,0.10306406766176224,0.10306406766176224,0.0891364887356758,0.09470751881599425,0.0891364887356758,0.09192200750112531,0.09470751881599425,0.10306406766176224,0.09749303758144376,0.10863509774208067,0.10027854889631273,0.11142061650753021,0.10027854889631273,0.10584957897663116,0.10027854889631273,0.10863509774208067,0.10584957897663116,0.10306406766176224,0.09749303758144376,0.10584957897663116,0.10027854889631273,0.10306406766176224,0.09192200750112531,0.10027854889631273,0.09470751881599425,0.09749303758144376,0.09192200750112531,0.09749303758144376,0.09470751881599425,0.10027854889631273,0.09192200750112531,0.10306406766176224,0.09192200750112531,0.09749303758144376,0.0891364887356758,0.09192200750112531,0.09470751881599425,0.09749303758144376,0.09192200750112531,0.10027854889631273,0.09470751881599425,0.09470751881599425,0.09749303758144376,0.10306406766176224,0.10027854889631273,0.10584957897663116,0.10863509774208067,0.12534819543361664,0.12256267666816713,0.1364902555942535,0.1559888571500778,0.17548745870590207,0.1532033383846283,0.1559888571500778,0.1420612782239914,0.1364902555942535,0.12256267666816713,0.10306406766176224,0.08356545865535736,0.08356545865535736,0.07520891726016998,0.08077994734048843,0.07242339849472045,0.07520891726016998,0.08077994734048843,0.06406684964895247,0.0,0.16434539854526523,0.6601671576499939,1.0,0.523676872253418,0.3621169924736023,0.1977715939283371,0.12256267666816713,0.06406684964895247,0.05571030825376511,0.038997214287519455,0.05013927444815636,0.03621169924736023,0.04178272932767868,0.03621169924736023,0.04178272932767868,0.03621169924736023,0.038997214287519455,0.033426184207201004,0.04178272932767868,0.030640669167041782,0.04178272932767868,0.04178272932767868,0.04456824436783791,0.04178272932767868,0.05571030825376511,0.047353759407997124,0.0,0.0,0.0,0.0,0.0,0.0,0.0,0.0,0.0,0.0,0.0,0.0,0.0,0.0,0.0,0.0,0.0,0.0,0.0,0.0,0.0,0.0,0.0,0.0,0.0,0.0,0.0,0.0,0.0,0.0,0.0,0.0,0.0,0.0,0.0,0.0,0.0,0.0,0.0,0.0,0.0,0.0,0.0,0.0
1.0,0.9350104928016664,0.6226415038108826,0.29140460491180414,0.236897274851799,0.22431865334510803,0.15723270177841187,0.14046122133731842,0.138364776968956,0.13626834750175476,0.13417190313339233,0.12368972599506378,0.1257861703634262,0.1320754736661911,0.1257861703634262,0.10062892735004424,0.10691823810338975,0.11530398577451705,0.10062892735004424,0.07966457307338712,0.069182388484478,0.06498951464891432,0.04402515664696693,0.01467505283653736,0.0,0.0041928719729185104,0.0020964359864592552,0.0,0.023060796782374385,0.05870021134614944,0.09014675021171568,0.11320754885673523,0.1467505246400833,0.18238992989063266,0.20125785470008847,0.20545072853565216,0.2138364762067795,0.22222222387790683,0.21802935004234317,0.21802935004234317,0.21802935004234317,0.22641509771347046,0.22431865334510803,0.21802935004234317,0.2285115271806717,0.22431865334510803,0.22641509771347046,0.22431865334510803,0.2452830225229264,0.25786164402961725,0.26624739170074463,0.28092244267463684,0.30188679695129395,0.3542976975440979,0.3605870008468628,0.32914045453071594,0.348008394241333,0.3542976975440979,0.3081761002540588,0.2641509473323822,0.24947589635849,0.236897274851799,0.21802935004234317,0.21593292057514193,0.22222222387790683,0.23270440101623535,0.2285115271806717,0.2557651996612548,0.42976939678192133,0.7044025063514708,0.903563916683197,0.9958071112632751,0.8972746133804321,0.5828092098236084,0.2976939082145691,0.2285115271806717,0.22012577950954437,0.1761006265878677,0.15513627231121063,0.15723270177841187,0.14884695410728455,0.1530398279428482,0.15723270177841187,0.138364776968956,0.138364776968956,0.0,0.0,0.0,0.0,0.0,0.0,0.0,0.0,0.0,0.0,0.0,0.0,0.0,0.0,0.0,0.0,0.0,0.0,0.0,0.0,0.0,0.0,0.0,0.0,0.0,0.0,0.0,0.0,0.0,0.0,0.0,0.0,0.0,0.0,0.0,0.0,0.0,0.0,0.0,0.0,0.0,0.0,0.0,0.0,0.0,0.0,0.0,0.0,0.0,0.0,0.0,0.0,0.0,0.0,0.0,0.0,0.0,0.0,0.0,0.0,0.0,0.0,0.0,0.0,0.0,0.0,0.0,0.0,0.0,0.0,0.0,0.0,0.0,0.0,0.0,0.0,0.0,0.0,0.0,0.0,0.0,0.0,0.0,0.0,0.0,0.0,0.0,0.0,0.0,0.0,0.0,0.0,0.0,0.0,0.0,0.0,0.0,0.0,0.0,0.0,0.0,0.0
0.9796437621116638,0.9745547175407407,0.7659032940864563,0.315521627664566,0.07379134744405746,0.16030533611774445,0.1450381726026535,0.06870228797197342,0.01781170442700386,0.03307887911796569,0.038167938590049744,0.04325699806213379,0.03562340885400772,0.040712468326091766,0.050890583544969566,0.04834605753421784,0.03562340885400772,0.03307887911796569,0.022900763899087902,0.045801527798175805,0.030534351244568825,0.022900763899087902,0.040712468326091766,0.04834605753421784,0.050890583544969566,0.03307887911796569,0.0661577582359314,0.06106870248913765,0.06361322849988936,0.050890583544969566,0.09414758533239362,0.08142493665218353,0.09669211506843568,0.09923664480447769,0.1246819347143173,0.13231551647186282,0.14249363541603088,0.11450381577014924,0.1475826948881149,0.1348600536584854,0.12977099418640134,0.1119592860341072,0.13231551647186282,0.1221374049782753,0.11704834550619123,0.09669211506843568,0.1246819347143173,0.10178116708993913,0.09923664480447769,0.07124681770801544,0.08396946638822556,0.08142493665218353,0.09923664480447769,0.08651399612426759,0.10941475629806519,0.10687022656202316,0.09414758533239362,0.09414758533239362,0.11704834550619123,0.1246819347143173,0.10687022656202316,0.1221374049782753,0.1348600536584854,0.14249363541603088,0.16030533611774445,0.18829517066478726,0.2366412281990051,0.22137404978275296,0.2315521687269211,0.20356233417987826,0.21628499031066892,0.19338423013687134,0.157760813832283,0.11450381577014924,0.12722645699977872,0.10687022656202316,0.10432569682598114,0.08396946638822556,0.1119592860341072,0.09414758533239362,0.08905852586030961,0.0,0.010178117081522942,0.19338423013687134,0.5012722611427308,0.7709923386573792,0.9821882843971252,1.0,0.8244274854660033,0.32569974660873413,0.1119592860341072,0.1781170517206192,0.16539439558982846,0.07379134744405746,0.06106870248913765,0.05852417275309563,0.055979643017053604,0.04834605753421784,0.07379134744405746,0.0661577582359314,0.06106870248913765,0.05343511328101159,0.06106870248913765,0.06870228797197342,0.0,0.0,0.0,0.0,0.0,0.0,0.0,0.0,0.0,0.0,0.0,0.0,0.0,0.0,0.0,0.0,0.0,0.0,0.0,0.0,0.0,0.0,0.0,0.0,0.0,0.0,0.0,0.0,0.0,0.0,0.0,0.0,0.0,0.0,0.0,0.0,0.0,0.0,0.0,0.0,0.0,0.0,0.0,0.0,0.0,0.0,0.0,0.0,0.0,0.0,0.0,0.0,0.0,0.0,0.0,0.0,0.0,0.0,0.0,0.0,0.0,0.0,0.0,0.0,0.0,0.0,0.0,0.0,0.0,0.0,0.0,0.0,0.0,0.0,0.0,0.0,0.0,0.0,0.0,0.0,0.0,0.0,0.0
0.9501915574073792,0.7777777910232544,0.3984674215316773,0.0,0.0,0.1187739446759224,0.13793103396892548,0.2298850566148758,0.27586206793785095,0.2567049860954285,0.252873569726944,0.2567049860954285,0.2567049860954285,0.26053640246391296,0.24904213845729825,0.2567049860954285,0.252873569726944,0.252873569726944,0.24904213845729825,0.24904213845729825,0.2567049860954285,0.2337164729833603,0.2337164729833603,0.2260536402463913,0.2337164729833603,0.2298850566148758,0.21839080750942233,0.21839080750942233,0.21072797477245328,0.2260536402463913,0.22222222387790683,0.2298850566148758,0.252873569726944,0.27203065156936646,0.2796934843063354,0.32183909416198725,0.37164750695228577,0.40613025426864624,0.4176245331764221,0.44444444775581365,0.4789271950721741,0.4904214441776275,0.4789271950721741,0.4750957787036896,0.4827586114406586,0.4597701132297516,0.4291187822818756,0.44444444775581365,0.44444444775581365,0.43678161501884466,0.4291187822818756,0.4252873659133911,0.43678161501884466,0.43295019865036005,0.4137931168079376,0.42145594954490656,0.42145594954490656,0.44061303138732916,0.42145594954490656,0.42145594954490656,0.44061303138732916,0.43295019865036005,0.44061303138732916,0.43295019865036005,0.4482758641242981,0.4674329459667206,0.4750957787036896,0.4942528605461121,0.5057471394538879,0.5134099721908569,0.517241358757019,0.5057471394538879,0.501915693283081,0.4942528605461121,0.4482758641242981,0.4291187822818756,0.4291187822818756,0.4099617004394531,0.3908045887947082,0.38697317242622375,0.3984674215316773,0.3984674215316773,0.38314175605773926,0.39463600516319286,0.4252873659133911,0.4521072804927826,0.5785440802574158,0.8084291219711301,1.0,0.7931034564971923,0.4137931168079376,0.026819923892617222,0.1072796955704689,0.2298850566148758,0.2950191497802734,0.3065133988857269,0.32183909416198725,0.3103448152542114,0.2950191497802734,0.30268198251724243,0.3141762316226959,0.3141762316226959,0.29118773341178894,0.28735631704330444,0.29885056614875793,0.0,0.0,0.0,0.0,0.0,0.0,0.0,0.0,0.0,0.0,0.0,0.0,0.0,0.0,0.0,0.0,0.0,0.0,0.0,0.0,0.0,0.0,0.0,0.0,0.0,0.0,0.0,0.0,0.0,0.0,0.0,0.0,0.0,0.0,0.0,0.0,0.0,0.0,0.0,0.0,0.0,0.0,0.0,0.0,0.0,0.0,0.0,0.0,0.0,0.0,0.0,0.0,0.0,0.0,0.0,0.0,0.0,0.0,0.0,0.0,0.0,0.0,0.0,0.0,0.0,0.0,0.0,0.0,0.0,0.0,0.0,0.0,0.0,0.0,0.0,0.0,0.0,0.0,0.0,0.0,0.0,0.0
1.0,0.9202454090118408,0.6809815764427185,0.4662576615810394,0.25766870379447937,0.10429447889328004,0.08588957041502002,0.11042945086956024,0.12883435189723969,0.0981595069169998,0.11656441539525984,0.14723926782608032,0.14723926782608032,0.12269938737154007,0.1533742398023605,0.1779141128063202,0.15950919687747955,0.15950919687747955,0.17177914083003998,0.19631901383399966,0.19018404185771942,0.1779141128063202,0.19631901383399966,0.22085890173912048,0.2147239297628403,0.2147239297628403,0.2331288307905197,0.24539877474308014,0.25766870379447937,0.2331288307905197,0.26993864774703974,0.3006134927272797,0.29447853565216064,0.2760736048221588,0.29447853565216064,0.29447853565216064,0.26993864774703974,0.22085890173912048,0.2269938588142395,0.2147239297628403,0.1779141128063202,0.12269938737154007,0.12269938737154007,0.12269938737154007,0.0981595069169998,0.05521472543478012,0.05521472543478012,0.07975459843873978,0.07975459843873978,0.05521472543478012,0.061349693685770035,0.08588957041502002,0.05521472543478012,0.03680981695652008,0.024539876729249958,0.03680981695652008,0.024539876729249958,0.0,0.01840490847826004,0.03680981695652008,0.012269938364624975,0.012269938364624975,0.030674846842885017,0.04294478520751001,0.024539876729249958,0.006134969182312489,0.012269938364624975,0.03680981695652008,0.030674846842885017,0.01840490847826004,0.03680981695652008,0.05521472543478012,0.03680981695652008,0.03680981695652008,0.04294478520751001,0.06748466193675995,0.05521472543478012,0.03680981695652008,0.03680981695652008,0.07975459843873978,0.061349693685770035,0.04294478520751001,0.07361963391304016,0.0920245423913002,0.06748466193675995,0.03680981695652008,0.049079753458499915,0.07975459843873978,0.061349693685770035,0.049079753458499915,0.061349693685770035,0.07975459843873978,0.061349693685770035,0.04294478520751001,0.049079753458499915,0.08588957041502002,0.06748466193675995,0.05521472543478012,0.06748466193675995,0.07975459843873978,0.06748466193675995,0.03680981695652008,0.07975459843873978,0.10429447889328004,0.12883435189723969,0.1411042958498001,0.13496932387351987,0.16564416885375974,0.15950919687747955,0.13496932387351987,0.15950919687747955,0.16564416885375974,0.11656441539525984,0.0920245423913002,0.07975459843873978,0.0981595069169998,0.061349693685770035,0.061349693685770035,0.08588957041502002,0.11042945086956024,0.13496932387351987,0.2331288307905197,0.5398772954940796,0.803680956363678,0.858895719051361,0.9509202241897584,0.8957055211067199,0.6380367875099182,0.3374233245849609,0.1411042958498001,0.08588957041502002,0.12883435189723969,0.13496932387351987,0.12269938737154007,0.12883435189723969,0.17177914083003998,0.14723926782608032,0.13496932387351987,0.15950919687747955,0.18404908478260038,0.19631901383399966,0.18404908478260038,0.20245398581027985,0.23926380276679995,0.22085890173912048,0.19018404185771942,0.20858895778656003,0.25153374671936035,0.23926380276679995,0.2147239297628403,0.0,0.0,0.0,0.0,0.0,0.0,0.0,0.0,0.0,0.0,0.0,0.0,0.0,0.0,0.0,0.0,0.0,0.0,0.0,0.0,0.0,0.0,0.0,0.0,0.0,0.0,0.0,0.0,0.0,0.0,0.0,0.0,0.0,0.0,0.0,0.0,0.0
0.813753604888916,0.719197690486908,0.3982807993888855,0.0,0.09742120653390884,0.23782235383987424,0.30372491478919983,0.34097421169281006,0.32951289415359497,0.3638968467712402,0.35243552923202515,0.3896848261356354,0.3782235085964202,0.4212034344673157,0.418338119983673,0.4469914138317108,0.4469914138317108,0.5071633458137512,0.5186246633529663,0.5444126129150391,0.5300859808921814,0.5558739304542542,0.5358166098594666,0.5501432418823242,0.5272206068038942,0.515759289264679,0.458452731370926,0.4412607550621033,0.3896848261356354,0.3868194818496704,0.3467048704624176,0.3667621910572052,0.35243552923202515,0.35243552923202515,0.3381088972091675,0.3381088972091675,0.32951289415359497,0.35243552923202515,0.343839555978775,0.3638968467712402,0.35243552923202515,0.4011461436748505,0.392550140619278,0.3954154849052429,0.3696275055408477,0.3896848261356354,0.35243552923202515,0.3610315322875977,0.3381088972091675,0.3610315322875977,0.34097421169281006,0.3638968467712402,0.3495702147483826,0.3553008735179901,0.3581661880016327,0.3495702147483826,0.33237820863723755,0.3896848261356354,0.34097421169281006,0.32951289415359497,0.32951289415359497,0.3638968467712402,0.5644699335098267,0.8567335009574889,1.0,0.8452721834182739,0.40401145815849293,0.07449856400489806,0.12320917099714282,0.28939828276634216,0.32091689109802246,0.29799425601959223,0.34097421169281006,0.3724928498268128,0.38108882308006287,0.406876802444458,0.392550140619278,0.0,0.0,0.0,0.0,0.0,0.0,0.0,0.0,0.0,0.0,0.0,0.0,0.0,0.0,0.0,0.0,0.0,0.0,0.0,0.0,0.0,0.0,0.0,0.0,0.0,0.0,0.0,0.0,0.0,0.0,0.0,0.0,0.0,0.0,0.0,0.0,0.0,0.0,0.0,0.0,0.0,0.0,0.0,0.0,0.0,0.0,0.0,0.0,0.0,0.0,0.0,0.0,0.0,0.0,0.0,0.0,0.0,0.0,0.0,0.0,0.0,0.0,0.0,0.0,0.0,0.0,0.0,0.0,0.0,0.0,0.0,0.0,0.0,0.0,0.0,0.0,0.0,0.0,0.0,0.0,0.0,0.0,0.0,0.0,0.0,0.0,0.0,0.0,0.0,0.0,0.0,0.0,0.0,0.0,0.0,0.0,0.0,0.0,0.0,0.0,0.0,0.0,0.0,0.0,0.0,0.0,0.0,0.0,0.0,0.0
0.9971181750297546,0.7867435216903687,0.07204610854387282,0.0922190174460411,0.08357349038124083,0.08933717757463455,0.06916426867246628,0.08357349038124083,0.07204610854387282,0.08357349038124083,0.07204610854387282,0.0806916430592537,0.06340057402849197,0.07204610854387282,0.06628242135047914,0.07492795586585999,0.06916426867246628,0.07492795586585999,0.06916426867246628,0.07204610854387282,0.06340057402849197,0.07204610854387282,0.06340057402849197,0.06916426867246628,0.06628242135047914,0.07492795586585999,0.06628242135047914,0.07780979573726655,0.06628242135047914,0.07492795586585999,0.048991356045007706,0.06628242135047914,0.06051873043179511,0.07204610854387282,0.06916426867246628,0.09510086476802826,0.09510086476802826,0.12968300282955167,0.1354466825723648,0.14697405695915222,0.13832853734493256,0.15273775160312653,0.14697405695915222,0.14985591173171997,0.14985591173171997,0.1613832861185074,0.15273775160312653,0.15850144624710083,0.13256484270095825,0.14697405695915222,0.13832853734493256,0.13256484270095825,0.1354466825723648,0.13256484270095825,0.12391930818557742,0.1354466825723648,0.12680114805698392,0.13256484270095825,0.11239193379878995,0.11815562099218367,0.11239193379878995,0.12680114805698392,0.11815562099218367,0.12391930818557742,0.12103746086359025,0.12680114805698392,0.12391930818557742,0.12968300282955167,0.12103746086359025,0.12968300282955167,0.12680114805698392,0.13832853734493256,0.14985591173171997,0.17579250037670138,0.17579250037670138,0.19884726405143738,0.19308356940746307,0.20749279856681824,0.19020172953605646,0.1786743551492691,0.17291066050529477,0.19884726405143738,0.1786743551492691,0.15273775160312653,0.12968300282955167,0.1354466825723648,0.12680114805698392,0.12680114805698392,0.11239193379878995,0.1152737736701965,0.12103746086359025,0.12391930818557742,0.05187319964170456,0.0,0.12968300282955167,0.4956772327423097,0.939481258392334,1.0,0.33717578649520874,0.06916426867246628,0.1152737736701965,0.10951008647680281,0.09510086476802826,0.10086455196142195,0.0922190174460411,0.10374639928340912,0.09510086476802826,0.10374639928340912,0.0922190174460411,0.09798271209001537,0.08357349038124083,0.09510086476802826,0.0922190174460411,0.10374639928340912,0.09510086476802826,0.0,0.0,0.0,0.0,0.0,0.0,0.0,0.0,0.0,0.0,0.0,0.0,0.0,0.0,0.0,0.0,0.0,0.0,0.0,0.0,0.0,0.0,0.0,0.0,0.0,0.0,0.0,0.0,0.0,0.0,0.0,0.0,0.0,0.0,0.0,0.0,0.0,0.0,0.0,0.0,0.0,0.0,0.0,0.0,0.0,0.0,0.0,0.0,0.0,0.0,0.0,0.0,0.0,0.0,0.0,0.0,0.0,0.0,0.0,0.0,0.0,0.0,0.0,0.0,0.0,0.0,0.0,0.0,0.0,0.0,0.0,0.0
1.0,0.536340832710266,0.0,0.06265664100646974,0.06265664100646974,0.06516290456056595,0.04511278122663497,0.0476190485060215,0.0476190485060215,0.0476190485060215,0.05764411017298698,0.06766917556524277,0.06516290456056595,0.07268170267343521,0.07268170267343521,0.08771929889917374,0.08020050078630446,0.10025062412023544,0.10025062412023544,0.10526315867900847,0.12280701845884323,0.14536340534687042,0.14035087823867798,0.16040100157260892,0.16290727257728574,0.170426070690155,0.1804511249065399,0.2005012482404709,0.18546365201473242,0.1804511249065399,0.15789473056793213,0.1278195530176163,0.10025062412023544,0.09774436056613921,0.07268170267343521,0.06265664100646974,0.05012531206011772,0.0601503774523735,0.04511278122663497,0.06516290456056595,0.05012531206011772,0.0601503774523735,0.06516290456056595,0.06766917556524277,0.06265664100646974,0.07268170267343521,0.07268170267343521,0.07268170267343521,0.07017543911933899,0.09022556245326994,0.07017543911933899,0.07518796622753142,0.08270676434040068,0.07017543911933899,0.07268170267343521,0.07769423723220827,0.055137842893600464,0.07268170267343521,0.07268170267343521,0.07769423723220827,0.09523809701204301,0.1278195530176163,0.13283208012580872,0.1779448688030243,0.20300751924514768,0.2005012482404709,0.17293232679367065,0.13032580912113187,0.08020050078630446,0.06265664100646974,0.055137842893600464,0.05764411017298698,0.03007518872618675,0.04260651767253876,0.032581452280282974,0.04260651767253876,0.05263157933950424,0.07518796622753142,0.1177944839000702,0.35338345170021057,0.7744361162185669,0.962406039237976,0.3583959937095642,0.04260651767253876,0.06516290456056595,0.0852130353450775,0.08270676434040068,0.08270676434040068,0.06766917556524277,0.0852130353450775,0.07268170267343521,0.08771929889917374,0.08771929889917374,0.10025062412023544,0.09774436056613921,0.11528822034597395,0.1177944839000702,0.12531328201293945,0.0,0.0,0.0,0.0,0.0,0.0,0.0,0.0,0.0,0.0,0.0,0.0,0.0,0.0,0.0,0.0,0.0,0.0,0.0,0.0,0.0,0.0,0.0,0.0,0.0,0.0,0.0,0.0,0.0,0.0,0.0,0.0,0.0,0.0,0.0,0.0,0.0,0.0,0.0,0.0,0.0,0.0,0.0,0.0,0.0,0.0,0.0,0.0,0.0,0.0,0.0,0.0,0.0,0.0,0.0,0.0,0.0,0.0,0.0,0.0,0.0,0.0,0.0,0.0,0.0,0.0,0.0,0.0,0.0,0.0,0.0,0.0,0.0,0.0,0.0,0.0,0.0,0.0,0.0,0.0,0.0,0.0,0.0,0.0,0.0,0.0,0.0,0.0,0.0
0.9932885766029356,0.8255033493041992,0.4228187799453735,0.15436241030693051,0.10402684658765793,0.11744966357946397,0.07718120515346526,0.07046979665756226,0.040268454700708396,0.046979866921901696,0.023489933460950848,0.046979866921901696,0.02684563770890236,0.030201341956853863,0.03355704620480537,0.03691275045275688,0.020134227350354198,0.046979866921901696,0.0436241626739502,0.05704697966575624,0.05369127541780472,0.07382550090551376,0.06711409240961073,0.09060402959585187,0.09395973384380339,0.12416107207536695,0.12751677632331848,0.15771812200546265,0.17114093899726868,0.21812079846858975,0.2281879186630249,0.25503355264663696,0.26845636963844294,0.2852348983287811,0.2785235047340393,0.2751677930355072,0.24496644735336304,0.22483222186565402,0.17449665069580078,0.1375838965177536,0.0973154380917549,0.09395973384380339,0.0436241626739502,0.0436241626739502,0.030201341956853863,0.03355704620480537,0.010067113675177096,0.03355704620480537,0.00671140942722559,0.03355704620480537,0.020134227350354198,0.02684563770890236,0.02684563770890236,0.03355704620480537,0.03355704620480537,0.03355704620480537,0.023489933460950848,0.0436241626739502,0.023489933460950848,0.040268454700708396,0.02684563770890236,0.030201341956853863,0.023489933460950848,0.02684563770890236,0.023489933460950848,0.030201341956853863,0.020134227350354198,0.020134227350354198,0.016778523102402687,0.01342281885445118,0.00671140942722559,0.020134227350354198,0.003355704713612795,0.02684563770890236,0.003355704713612795,0.023489933460950848,0.00671140942722559,0.020134227350354198,0.010067113675177096,0.023489933460950848,0.0,0.02684563770890236,0.016778523102402687,0.02684563770890236,0.01342281885445118,0.02684563770890236,0.023489933460950848,0.023489933460950848,0.020134227350354198,0.03355704620480537,0.02684563770890236,0.023489933460950848,0.023489933460950848,0.03691275045275688,0.03355704620480537,0.0436241626739502,0.0436241626739502,0.05369127541780472,0.046979866921901696,0.05704697966575624,0.05033557116985321,0.05704697966575624,0.05369127541780472,0.05704697966575624,0.05369127541780472,0.07046979665756226,0.05704697966575624,0.06711409240961073,0.060402683913707726,0.06711409240961073,0.05704697966575624,0.07046979665756226,0.07046979665756226,0.08053690940141676,0.07718120515346526,0.08389262109994887,0.07046979665756226,0.07718120515346526,0.09060402959585187,0.11409395933151245,0.12080536782741545,0.13087248802185059,0.10738255083560944,0.10738255083560944,0.0872483253479004,0.08389262109994887,0.08053690940141676,0.09060402959585187,0.09060402959585187,0.10402684658765793,0.10067114233970641,0.11073825508356094,0.12080536782741545,0.19463087618350983,0.2885906100273132,0.5201342105865479,0.7651006579399107,1.0,0.936241626739502,0.5771812200546264,0.2617449760437012,0.1442953050136566,0.14765100181102753,0.11744966357946397,0.07718120515346526,0.08053690940141676,0.06375838816165924,0.06375838816165924,0.05704697966575624,0.06375838816165924,0.05369127541780472,0.07046979665756226,0.06375838816165924,0.07382550090551376,0.07382550090551376,0.08053690940141676,0.09060402959585187,0.10402684658765793,0.10402684658765793,0.13422818481922147,0.1375838965177536,0.16778524219989774,0.17449665069580078,0.0,0.0,0.0,0.0,0.0,0.0,0.0,0.0,0.0,0.0,0.0,0.0,0.0,0.0,0.0,0.0,0.0,0.0,0.0,0.0,0.0,0.0,0.0,0.0
0.961693525314331,0.7479838728904723,0.13508065044879913,0.0020161289721727367,0.07258064299821852,0.07258064299821852,0.0625,0.0604838691651821,0.04435483738780022,0.038306452333927155,0.038306452333927155,0.038306452333927155,0.032258063554763794,0.03024193458259105,0.04032257944345473,0.04032257944345473,0.0463709682226181,0.04435483738780022,0.050403226166963584,0.0604838691651821,0.0625,0.07056451588869095,0.07661290466785432,0.08870967477560043,0.10080645233392717,0.11290322244167328,0.13508065044879913,0.1532258093357086,0.17540322244167328,0.1915322542190552,0.2157258093357086,0.23588709533214566,0.2419354766607284,0.26008063554763794,0.2721774280071258,0.27016130089759827,0.26612904667854304,0.25604838132858276,0.2379032224416733,0.21169355511665344,0.17943547666072845,0.1532258093357086,0.13306452333927152,0.11491935700178145,0.10483870655298233,0.10080645233392717,0.09677419066429138,0.0947580635547638,0.0947580635547638,0.10080645233392717,0.09879032522439955,0.10483870655298233,0.10483870655298233,0.10483870655298233,0.1088709682226181,0.10685484111309053,0.11088709533214568,0.1088709682226181,0.11491935700178145,0.11895161122083665,0.11491935700178145,0.1209677383303642,0.11290322244167328,0.11693548411130902,0.11290322244167328,0.1088709682226181,0.10483870655298233,0.09879032522439955,0.0927419364452362,0.0927419364452362,0.09072580933570862,0.08870967477560043,0.08669354766607283,0.08266129344701767,0.07661290466785432,0.08064515888690946,0.07862903177738188,0.08064515888690946,0.08064515888690946,0.07862903177738188,0.08064515888690946,0.08266129344701767,0.07661290466785432,0.08266129344701767,0.0947580635547638,0.11088709533214568,0.11491935700178145,0.1270161271095276,0.125,0.13306452333927152,0.1270161271095276,0.11088709533214568,0.11088709533214568,0.11693548411130902,0.10483870655298233,0.08870967477560043,0.08064515888690946,0.06854838877916336,0.058467742055654526,0.06451612710952759,0.05645161122083664,0.06451612710952759,0.0625,0.0604838691651821,0.0625,0.06653226166963576,0.0625,0.05241935327649117,0.0,0.0604838691651821,0.3245967626571655,0.7641128897666931,1.0,0.6975806355476379,0.1411290317773819,0.038306452333927155,0.11290322244167328,0.0947580635547638,0.08467742055654524,0.07459677755832672,0.0625,0.06653226166963576,0.0604838691651821,0.05645161122083664,0.05645161122083664,0.05645161122083664,0.0604838691651821,0.058467742055654526,0.0604838691651821,0.0625,0.07056451588869095,0.07258064299821852,0.08266129344701767,0.09072580933570862,0.0,0.0,0.0,0.0,0.0,0.0,0.0,0.0,0.0,0.0,0.0,0.0,0.0,0.0,0.0,0.0,0.0,0.0,0.0,0.0,0.0,0.0,0.0,0.0,0.0,0.0,0.0,0.0,0.0,0.0,0.0,0.0,0.0,0.0,0.0,0.0,0.0,0.0,0.0,0.0,0.0,0.0,0.0,0.0,0.0,0.0,0.0,0.0,0.0,0.0,0.0,0.0,0.0
0.989858031272888,0.906693696975708,0.7261663079261779,0.5537525415420532,0.35902637243270874,0.17444218695163724,0.05273833498358727,0.0,0.00811359006911516,0.018255578354001045,0.06490872055292128,0.09127788990736008,0.12778905034065247,0.1480730175971985,0.16430020332336423,0.16430020332336423,0.1764705926179886,0.16430020332336423,0.16430020332336423,0.15821501612663266,0.1602434068918228,0.14604462683200836,0.1480730175971985,0.13995942473411563,0.14604462683200836,0.13793103396892548,0.1501014232635498,0.1480730175971985,0.1622718125581741,0.1683569997549057,0.18255577981472013,0.19269776344299322,0.2089249491691589,0.21906693279743197,0.23935091495513916,0.25152128934860224,0.2778904736042023,0.2900608479976654,0.3164300322532653,0.3265720009803772,0.34685599803924555,0.3529411852359772,0.36308315396308893,0.3549695611000061,0.35902637243270874,0.3488843739032745,0.35091277956962585,0.3346855938434601,0.3387424051761627,0.3306288123130798,0.342799186706543,0.3367139995098114,0.35091277956962585,0.342799186706543,0.3367139995098114,0.3407707810401916,0.3549695611000061,0.34685599803924555,0.3488843739032745,0.3407707810401916,0.3529411852359772,0.35091277956962585,0.3367139995098114,0.2981744408607483,0.28600406646728516,0.2616632878780365,0.26774847507476807,0.25354969501495356,0.2636916935443878,0.2576064765453338,0.26572006940841675,0.2596348822116852,0.2718052864074707,0.26774847507476807,0.2778904736042023,0.27586206793785095,0.28194725513458246,0.27586206793785095,0.28600406646728516,0.2778904736042023,0.28600406646728516,0.27586206793785095,0.2718052864074707,0.24340771138668066,0.31237322092056274,0.4462474584579468,0.5780932903289795,0.7119675278663635,0.8924949169158936,0.993914783000946,1.0,0.860040545463562,0.6693711876869202,0.4746450185775757,0.2454361021518707,0.08519269526004788,0.020283976569771774,0.010141988284885887,0.028397565707564357,0.05476673319935799,0.1034482792019844,0.11561866104602812,0.1501014232635498,0.15618661046028134,0.17444218695163724,0.1622718125581741,0.17444218695163724,0.0,0.0,0.0,0.0,0.0,0.0,0.0,0.0,0.0,0.0,0.0,0.0,0.0,0.0,0.0,0.0,0.0,0.0,0.0,0.0,0.0,0.0,0.0,0.0,0.0,0.0,0.0,0.0,0.0,0.0,0.0,0.0,0.0,0.0,0.0,0.0,0.0,0.0,0.0,0.0,0.0,0.0,0.0,0.0,0.0,0.0,0.0,0.0,0.0,0.0,0.0,0.0,0.0,0.0,0.0,0.0,0.0,0.0,0.0,0.0,0.0,0.0,0.0,0.0,0.0,0.0,0.0,0.0,0.0,0.0,0.0,0.0,0.0,0.0,0.0,0.0,0.0,0.0,0.0,0.0
0.975881278514862,0.923933207988739,0.54916512966156,0.23005566000938416,0.18738403916358948,0.17254173755645752,0.11688311398029327,0.11502783000469208,0.12059368938207625,0.10760667920112607,0.10204081982374193,0.10389610379934312,0.10204081982374193,0.0983302444219589,0.0983302444219589,0.09276437759399414,0.09647495299577713,0.09461966902017593,0.07606679201126097,0.05936920270323753,0.04638218879699707,0.03339517489075661,0.012987012974917887,0.0092764375731349,0.0037105751689523454,0.005565862637013197,0.0,0.014842300675809382,0.03896103799343109,0.0705009251832962,0.0983302444219589,0.12430426478385923,0.15584415197372434,0.1688311696052551,0.1688311696052551,0.1743970364332199,0.1855287551879883,0.1762523204088211,0.17068645358085632,0.1743970364332199,0.1855287551879883,0.18367347121238708,0.1743970364332199,0.1762523204088211,0.18367347121238708,0.1799628883600235,0.17254173755645752,0.18367347121238708,0.20222634077072146,0.20222634077072146,0.21706864237785337,0.23562152683734894,0.2578849792480469,0.2801484167575836,0.30426716804504395,0.289424866437912,0.2949907183647156,0.2968460023403168,0.2634508311748505,0.22448979318141934,0.2096474915742874,0.19294990599155426,0.1743970364332199,0.1818181872367859,0.18738403916358948,0.1799628883600235,0.1762523204088211,0.20408163964748385,0.37291279435157776,0.6270871758461,0.8627087473869324,1.0,0.8923933506011962,0.4805194735527039,0.2374768108129501,0.22077922523021695,0.18367347121238708,0.1354359984397888,0.12059368938207625,0.12801484763622287,0.12987013161182404,0.12059368938207625,0.11131725460290909,0.11131725460290909,0.11688311398029327,0.0,0.0,0.0,0.0,0.0,0.0,0.0,0.0,0.0,0.0,0.0,0.0,0.0,0.0,0.0,0.0,0.0,0.0,0.0,0.0,0.0,0.0,0.0,0.0,0.0,0.0,0.0,0.0,0.0,0.0,0.0,0.0,0.0,0.0,0.0,0.0,0.0,0.0,0.0,0.0,0.0,0.0,0.0,0.0,0.0,0.0,0.0,0.0,0.0,0.0,0.0,0.0,0.0,0.0,0.0,0.0,0.0,0.0,0.0,0.0,0.0,0.0,0.0,0.0,0.0,0.0,0.0,0.0,0.0,0.0,0.0,0.0,0.0,0.0,0.0,0.0,0.0,0.0,0.0,0.0,0.0,0.0,0.0,0.0,0.0,0.0,0.0,0.0,0.0,0.0,0.0,0.0,0.0,0.0,0.0,0.0,0.0,0.0,0.0,0.0,0.0,0.0
0.96266233921051,0.9285714030265808,0.441558450460434,0.0,0.05194805189967155,0.17694805562496185,0.1818181872367859,0.2061688303947449,0.2288961112499237,0.22240260243415833,0.21590909361839292,0.21915584802627566,0.22240260243415833,0.2272727340459824,0.225649356842041,0.21915584802627566,0.225649356842041,0.2288961112499237,0.225649356842041,0.22240260243415833,0.225649356842041,0.23051947355270386,0.2321428507566452,0.225649356842041,0.23863635957241056,0.2467532455921173,0.2467532455921173,0.24512986838817594,0.25811687111854553,0.27272728085517883,0.2792207896709442,0.284090906381607,0.308441549539566,0.3279220759868621,0.3376623392105102,0.3474026024341583,0.36850649118423456,0.38636362552642817,0.3961038887500762,0.3928571343421936,0.399350643157959,0.3928571343421936,0.36525973677635193,0.3344155848026276,0.3149350583553315,0.298701286315918,0.2759740352630615,0.2516233623027801,0.2564935088157654,0.25487011671066284,0.2467532455921173,0.23538960516452784,0.2418831139802933,0.2467532455921173,0.23863635957241056,0.23538960516452784,0.23863635957241056,0.2467532455921173,0.24025973677635196,0.2418831139802933,0.2483766227960586,0.25,0.2483766227960586,0.2435064911842346,0.2467532455921173,0.2613636255264282,0.25487011671066284,0.2483766227960586,0.2516233623027801,0.2532467544078827,0.2467532455921173,0.2418831139802933,0.2483766227960586,0.2516233623027801,0.2435064911842346,0.23863635957241056,0.2418831139802933,0.2467532455921173,0.23701298236846924,0.2321428507566452,0.23376622796058655,0.2435064911842346,0.23538960516452784,0.22240260243415833,0.2272727340459824,0.23701298236846924,0.2321428507566452,0.22240260243415833,0.2288961112499237,0.23376622796058655,0.2272727340459824,0.22402597963809967,0.2272727340459824,0.2321428507566452,0.23051947355270386,0.225649356842041,0.2272727340459824,0.23376622796058655,0.2272727340459824,0.22240260243415833,0.2321428507566452,0.23376622796058655,0.22240260243415833,0.21915584802627566,0.2272727340459824,0.2321428507566452,0.2288961112499237,0.225649356842041,0.23051947355270386,0.23701298236846924,0.225649356842041,0.22402597963809967,0.23051947355270386,0.23376622796058655,0.22077922523021695,0.22240260243415833,0.22402597963809967,0.2321428507566452,0.23051947355270386,0.22077922523021695,0.23051947355270386,0.2321428507566452,0.225649356842041,0.22077922523021695,0.225649356842041,0.23376622796058655,0.2321428507566452,0.21753247082233426,0.2272727340459824,0.23863635957241056,0.23051947355270386,0.22402597963809967,0.2288961112499237,0.23538960516452784,0.23376622796058655,0.23051947355270386,0.2418831139802933,0.2629870176315308,0.2613636255264282,0.2694805264472961,0.2857142984867096,0.30194804072380066,0.28733766078948975,0.2694805264472961,0.27272728085517883,0.2808441519737244,0.25811687111854553,0.23376622796058655,0.22402597963809967,0.21915584802627566,0.21428571641445157,0.20941558480262756,0.2110389620065689,0.21753247082233426,0.21266233921051025,0.20941558480262756,0.21266233921051025,0.21915584802627566,0.22240260243415833,0.21753247082233426,0.225649356842041,0.24512986838817594,0.2516233623027801,0.30681818723678583,0.5292207598686217,0.8165584206581115,1.0,0.6883116960525513,0.13474026322364807,0.03246753290295601,0.19480518996715546,0.2061688303947449,0.21266233921051025,0.23538960516452784,0.225649356842041,0.21915584802627566,0.225649356842041,0.23051947355270386,0.2288961112499237,0.21915584802627566,0.23051947355270386,0.23538960516452784,0.2321428507566452,0.2272727340459824,0.2288961112499237,0.23863635957241056,0.23701298236846924
1.0,0.8910505771636964,0.42801555991172796,0.0,0.08171205967664717,0.2256809324026108,0.28015562891960144,0.3073929846286774,0.3346303403377533,0.330739289522171,0.31128403544425964,0.31906613707542414,0.3385213911533356,0.330739289522171,0.31128403544425964,0.3073929846286774,0.3151750862598419,0.3151750862598419,0.2918287813663482,0.2840466797351837,0.2957198321819305,0.2918287813663482,0.27237352728843683,0.2684824764728546,0.26070037484169006,0.2568093240261078,0.24513618648052216,0.24902723729610446,0.2568093240261078,0.2568093240261078,0.2645914256572724,0.28015562891960144,0.31128403544425964,0.3385213911533356,0.3618676960468292,0.4046692550182343,0.4513618648052216,0.4941634237766266,0.4980544745922089,0.5097275972366333,0.5214007496833801,0.5136186480522156,0.4980544745922089,0.4902723729610444,0.4902723729610444,0.4902723729610444,0.4669260680675506,0.4552529156208038,0.4747081696987153,0.4824902713298797,0.4552529156208038,0.44357976317405695,0.4552529156208038,0.4630350172519684,0.4474708139896393,0.4513618648052216,0.4630350172519684,0.459143966436386,0.459143966436386,0.4669260680675506,0.4747081696987153,0.4785992205142975,0.4785992205142975,0.4941634237766266,0.5214007496833801,0.5252918004989624,0.5097275972366333,0.5291828513145448,0.5408560037612915,0.5291828513145448,0.4980544745922089,0.4824902713298797,0.459143966436386,0.4474708139896393,0.4241245090961456,0.4085603058338165,0.416342407464981,0.42801555991172796,0.4046692550182343,0.4046692550182343,0.42801555991172796,0.4357976615428925,0.4785992205142975,0.6575875282287598,0.9377431869506836,0.9805447459220888,0.6653696298599244,0.2957198321819305,0.023346303030848507,0.1322957128286362,0.21011672914028168,0.28015562891960144,0.32295718789100647,0.3385213911533356,0.32684823870658875,0.31906613707542414,0.32295718789100647,0.330739289522171,0.3073929846286774,0.2996108829975129,0.31128403544425964,0.3035019338130951,0.0,0.0,0.0,0.0,0.0,0.0,0.0,0.0,0.0,0.0,0.0,0.0,0.0,0.0,0.0,0.0,0.0,0.0,0.0,0.0,0.0,0.0,0.0,0.0,0.0,0.0,0.0,0.0,0.0,0.0,0.0,0.0,0.0,0.0,0.0,0.0,0.0,0.0,0.0,0.0,0.0,0.0,0.0,0.0,0.0,0.0,0.0,0.0,0.0,0.0,0.0,0.0,0.0,0.0,0.0,0.0,0.0,0.0,0.0,0.0,0.0,0.0,0.0,0.0,0.0,0.0,0.0,0.0,0.0,0.0,0.0,0.0,0.0,0.0,0.0,0.0,0.0,0.0,0.0,0.0,0.0,0.0,0.0,0.0,0.0
0.8776595592498779,0.7446808218955994,0.7553191781044006,0.5797872543334961,0.478723406791687,0.07978723198175432,0.10638298094272611,0.0,0.07978723198175432,0.2180851101875305,0.3244680762290954,0.3404255211353302,0.3191489279270172,0.3882978856563568,0.4202127754688263,0.39361703395843517,0.2606382966041565,0.4414893686771392,0.3617021143436432,0.3723404109477997,0.3776595890522003,0.34574466943740845,0.38297873735427856,0.35106381773948664,0.4202127754688263,0.3723404109477997,0.4521276652812957,0.4202127754688263,0.4042553305625916,0.4414893686771392,0.478723406791687,0.5319148898124696,0.478723406791687,0.4680851101875304,0.521276593208313,0.5265957713127136,0.5319148898124696,0.5478723645210266,0.5319148898124696,0.5319148898124696,0.53723406791687,0.4893617033958435,0.44680851697921753,0.5265957713127136,0.5,0.4521276652812957,0.4680851101875304,0.44680851697921753,0.436170220375061,0.5,0.42553192377090443,0.4627659618854522,0.4202127754688263,0.478723406791687,0.38297873735427856,0.4627659618854522,0.39361703395843517,0.39361703395843517,0.4042553305625916,0.35106381773948664,0.3723404109477997,0.3191489279270172,0.39361703395843517,0.38297873735427856,0.33510637283325195,0.33510637283325195,0.3085106313228608,0.3297872245311737,0.4202127754688263,0.3882978856563568,0.3776595890522003,0.3723404109477997,0.3723404109477997,0.41489362716674805,0.4202127754688263,0.42553192377090443,0.4042553305625916,0.3989361822605133,0.39361703395843517,0.3989361822605133,0.39361703395843517,0.3776595890522003,0.4840425550937652,0.4414893686771392,0.3776595890522003,0.3776595890522003,0.5053191781044007,0.457446813583374,0.4414893686771392,0.4521276652812957,0.457446813583374,0.4734042584896088,0.4308510720729828,0.4680851101875304,0.4414893686771392,0.457446813583374,0.436170220375061,0.44680851697921753,0.4627659618854522,0.5,0.4893617033958435,0.4521276652812957,0.478723406791687,0.4521276652812957,0.5265957713127136,0.521276593208313,0.5319148898124696,0.53723406791687,0.601063847541809,0.6808510422706604,0.707446813583374,0.707446813583374,0.7180851101875305,0.707446813583374,0.5478723645210266,0.457446813583374,0.40957447886466974,0.4680851101875304,0.3882978856563568,0.40957447886466974,0.4734042584896088,0.4734042584896088,0.457446813583374,0.457446813583374,0.4521276652812957,0.4680851101875304,0.4680851101875304,0.4308510720729828,0.478723406791687,0.7659574747085571,1.0,0.920212745666504,0.8563829660415649,0.8244680762290953,0.7234042286872863,0.53723406791687,0.1702127605676651,0.047872342169284814,0.04255319014191628,0.12234042584896088,0.1808510571718216,0.3297872245311737,0.4042553305625916,0.4414893686771392,0.41489362716674805,0.4414893686771392,0.4414893686771392,0.4414893686771392,0.39361703395843517,0.4627659618854522,0.4308510720729828,0.4414893686771392,0.4414893686771392,0.457446813583374,0.4202127754688263,0.40957447886466974,0.436170220375061,0.4627659618854522,0.42553192377090443,0.4893617033958435,0.4627659618854522,0.521276593208313,0.5,0.5106382966041565,0.53723406791687,0.0,0.0,0.0,0.0,0.0,0.0,0.0,0.0,0.0,0.0,0.0,0.0,0.0,0.0,0.0,0.0,0.0,0.0,0.0,0.0,0.0,0.0
1.0,0.9013761281967166,0.465596318244934,0.10779816657304765,0.13990825414657593,0.1766055077314377,0.1605504602193832,0.15596330165863037,0.13761468231678006,0.13761468231678006,0.1444954127073288,0.13761468231678006,0.13761468231678006,0.15596330165863037,0.17431192100048065,0.17431192100048065,0.16972477734088895,0.16743119060993192,0.1651376187801361,0.14678898453712466,0.13532109558582306,0.12844036519527438,0.12385321408510208,0.10779816657304765,0.08486238867044449,0.0665137618780136,0.057339448481798165,0.04357798025012016,0.02064220234751701,0.016055045649409294,0.006880734115839004,0.0,0.00917431153357029,0.057339448481798165,0.11238531768321992,0.15366972982883453,0.18119266629219052,0.20642201602458957,0.2316513806581497,0.22935779392719266,0.2247706353664398,0.2362385392189026,0.24541284143924716,0.24082568287849426,0.22706422209739685,0.2247706353664398,0.23853211104869845,0.22935779392719266,0.2247706353664398,0.222477063536644,0.2178899049758911,0.22706422209739685,0.24082568287849426,0.2637614607810974,0.27293577790260315,0.26605504751205444,0.2545871436595917,0.25917431712150574,0.2545871436595917,0.24770642817020416,0.24082568287849426,0.25229358673095703,0.24541284143924716,0.2362385392189026,0.2247706353664398,0.2247706353664398,0.22935779392719266,0.222477063536644,0.19724771380424494,0.19724771380424494,0.19724771380424494,0.20412844419479367,0.222477063536644,0.2316513806581497,0.24541284143924716,0.2362385392189026,0.22018349170684812,0.2247706353664398,0.2316513806581497,0.19954128563404083,0.20642201602458957,0.39220184087753296,0.6949541568756104,0.9380733966827394,0.9541284441947938,0.8142201900482177,0.3600917458534241,0.11926605552434923,0.1651376187801361,0.17431192100048065,0.13990825414657593,0.13302752375602722,0.12844036519527438,0.14678898453712466,0.1582568734884262,0.15366972982883453,0.142201840877533,0.13073395192623138,0.12155963480472562,0.0,0.0,0.0,0.0,0.0,0.0,0.0,0.0,0.0,0.0,0.0,0.0,0.0,0.0,0.0,0.0,0.0,0.0,0.0,0.0,0.0,0.0,0.0,0.0,0.0,0.0,0.0,0.0,0.0,0.0,0.0,0.0,0.0,0.0,0.0,0.0,0.0,0.0,0.0,0.0,0.0,0.0,0.0,0.0,0.0,0.0,0.0,0.0,0.0,0.0,0.0,0.0,0.0,0.0,0.0,0.0,0.0,0.0,0.0,0.0,0.0,0.0,0.0,0.0,0.0,0.0,0.0,0.0,0.0,0.0,0.0,0.0,0.0,0.0,0.0,0.0,0.0,0.0,0.0,0.0,0.0,0.0,0.0,0.0,0.0,0.0,0.0,0.0
1.0,0.6907216310501098,0.02749140933156013,0.024054983630776402,0.1305841952562332,0.1168384850025177,0.10309278219938278,0.09278350323438644,0.08247422426939009,0.08247422426939009,0.09278350323438644,0.08934707939624786,0.08934707939624786,0.08247422426939009,0.08247422426939009,0.10652920603752136,0.10996563732624053,0.10996563732624053,0.10652920603752136,0.1202749162912369,0.10652920603752136,0.10996563732624053,0.1202749162912369,0.1340206116437912,0.1168384850025177,0.1168384850025177,0.1340206116437912,0.14089347422122958,0.12714776396751407,0.12371134012937544,0.14089347422122958,0.15463916957378387,0.1615120321512222,0.17525772750377658,0.19931271672248838,0.19931271672248838,0.1855670064687729,0.17525772750377658,0.17182131111621854,0.15807560086250305,0.12714776396751407,0.1168384850025177,0.12371134012937544,0.1168384850025177,0.10309278219938278,0.09278350323438644,0.08591065555810928,0.08934707939624786,0.09621993452310561,0.08934707939624786,0.09965635836124417,0.09965635836124417,0.08591065555810928,0.08591065555810928,0.08934707939624786,0.09278350323438644,0.07560137659311295,0.07560137659311295,0.08591065555810928,0.08247422426939009,0.0687285214662552,0.0687285214662552,0.08247422426939009,0.09278350323438644,0.09621993452310561,0.10652920603752136,0.12371134012937544,0.1512027531862259,0.1512027531862259,0.1168384850025177,0.1202749162912369,0.1202749162912369,0.09621993452310561,0.08247422426939009,0.0652920976281166,0.0687285214662552,0.06185567006468772,0.05841924250125885,0.0687285214662552,0.07903780043125151,0.024054983630776402,0.07560137659311295,0.4467353820800781,0.9553264379501342,0.7903780341148376,0.05841924250125885,0.0,0.15807560086250305,0.1340206116437912,0.09278350323438644,0.09965635836124417,0.09965635836124417,0.08934707939624786,0.08591065555810928,0.10652920603752136,0.10996563732624053,0.09965635836124417,0.09965635836124417,0.10996563732624053,0.12714776396751407,0.0,0.0,0.0,0.0,0.0,0.0,0.0,0.0,0.0,0.0,0.0,0.0,0.0,0.0,0.0,0.0,0.0,0.0,0.0,0.0,0.0,0.0,0.0,0.0,0.0,0.0,0.0,0.0,0.0,0.0,0.0,0.0,0.0,0.0,0.0,0.0,0.0,0.0,0.0,0.0,0.0,0.0,0.0,0.0,0.0,0.0,0.0,0.0,0.0,0.0,0.0,0.0,0.0,0.0,0.0,0.0,0.0,0.0,0.0,0.0,0.0,0.0,0.0,0.0,0.0,0.0,0.0,0.0,0.0,0.0,0.0,0.0,0.0,0.0,0.0,0.0,0.0,0.0,0.0,0.0,0.0,0.0,0.0,0.0,0.0,0.0,0.0
1.0,0.8357348442077634,0.35446685552597046,0.12680114805698392,0.08933717757463455,0.10662823915481567,0.06916426867246628,0.06340057402849197,0.03746397793292999,0.05475504323840141,0.02593659982085228,0.0432276651263237,0.020172910764813427,0.03746397793292999,0.020172910764813427,0.03746397793292999,0.0432276651263237,0.05763688683509826,0.04610950872302055,0.06916426867246628,0.05475504323840141,0.08357349038124083,0.0806916430592537,0.1152737736701965,0.11239193379878995,0.14985591173171997,0.15273775160312653,0.1844380348920822,0.19308356940746307,0.2219020128250122,0.230547547340393,0.25936600565910334,0.24783861637115484,0.2651296854019165,0.21325647830963132,0.19884726405143738,0.14409221708774567,0.13256484270095825,0.0922190174460411,0.08645533025264741,0.048991356045007706,0.06051873043179511,0.03170028701424599,0.04610950872302055,0.023054754361510277,0.03746397793292999,0.014409221708774565,0.03746397793292999,0.023054754361510277,0.04034582152962685,0.02881844341754913,0.04610950872302055,0.0432276651263237,0.05187319964170456,0.02593659982085228,0.04610950872302055,0.03746397793292999,0.04610950872302055,0.03746397793292999,0.0432276651263237,0.01729106716811657,0.03458213433623314,0.023054754361510277,0.02593659982085228,0.011527377180755137,0.02593659982085228,0.011527377180755137,0.023054754361510277,0.0,0.03170028701424599,0.014409221708774565,0.02881844341754913,0.002881844295188784,0.023054754361510277,0.008645533584058285,0.023054754361510277,0.01729106716811657,0.04034582152962685,0.03170028701424599,0.0432276651263237,0.03458213433623314,0.05187319964170456,0.048991356045007706,0.05763688683509826,0.048991356045007706,0.05763688683509826,0.05475504323840141,0.06340057402849197,0.04610950872302055,0.06340057402849197,0.0432276651263237,0.06340057402849197,0.05187319964170456,0.07492795586585999,0.05475504323840141,0.0806916430592537,0.06051873043179511,0.07492795586585999,0.06051873043179511,0.0806916430592537,0.07204610854387282,0.11239193379878995,0.09798271209001537,0.12968300282955167,0.12391930818557742,0.14409221708774567,0.11815562099218367,0.13832853734493256,0.10951008647680281,0.11239193379878995,0.07492795586585999,0.07492795586585999,0.05475504323840141,0.06051873043179511,0.05187319964170456,0.06340057402849197,0.06051873043179511,0.07204610854387282,0.05475504323840141,0.07204610854387282,0.06628242135047914,0.08645533025264741,0.0806916430592537,0.1412103772163391,0.22478386759757998,0.461095094680786,0.6974063515663146,0.9365994334220886,0.9884726405143736,0.6685879230499268,0.2824207544326782,0.10086455196142195,0.06916426867246628,0.09798271209001537,0.06051873043179511,0.07492795586585999,0.05763688683509826,0.06916426867246628,0.04610950872302055,0.06051873043179511,0.04034582152962685,0.05763688683509826,0.04610950872302055,0.07204610854387282,0.06340057402849197,0.07492795586585999,0.06916426867246628,0.0922190174460411,0.07780979573726655,0.10662823915481567,0.09510086476802826,0.12103746086359025,0.10951008647680281,0.14409221708774567,0.0,0.0,0.0,0.0,0.0,0.0,0.0,0.0,0.0,0.0,0.0,0.0,0.0,0.0,0.0,0.0,0.0,0.0,0.0,0.0,0.0,0.0,0.0,0.0,0.0,0.0,0.0,0.0,0.0,0.0,0.0,0.0,0.0
1.0,0.6755725145339965,0.11068702489137648,0.2251908332109451,0.2404580116271973,0.2290076315402985,0.2671755850315094,0.28244274854660034,0.28244274854660034,0.29770991206169123,0.28244274854660034,0.29770991206169123,0.290076345205307,0.30534350872039795,0.3129771053791046,0.3129771053791046,0.3282442688941956,0.3282442688941956,0.31679388880729675,0.3396946489810944,0.347328245639801,0.3435114622116089,0.3358778655529023,0.3435114622116089,0.3435114622116089,0.3244274854660034,0.3091602921485901,0.29770991206169123,0.290076345205307,0.2862595319747925,0.25954198837280273,0.24809160828590396,0.22137404978275296,0.2290076315402985,0.20610687136650083,0.21755725145339966,0.20992366969585416,0.22137404978275296,0.20992366969585416,0.2328244298696518,0.2251908332109451,0.25572520494461054,0.25190839171409607,0.2748091518878937,0.27099236845970154,0.3015267252922058,0.29770991206169123,0.3129771053791046,0.31679388880729675,0.31679388880729675,0.30534350872039795,0.3091602921485901,0.3091602921485901,0.3015267252922058,0.3015267252922058,0.3091602921485901,0.29770991206169123,0.29389312863349915,0.30534350872039795,0.30534350872039795,0.3091602921485901,0.3244274854660034,0.290076345205307,0.3091602921485901,0.30534350872039795,0.2862595319747925,0.3129771053791046,0.3091602921485901,0.3091602921485901,0.290076345205307,0.29770991206169123,0.3129771053791046,0.290076345205307,0.31679388880729675,0.3091602921485901,0.3015267252922058,0.3015267252922058,0.29770991206169123,0.3015267252922058,0.30534350872039795,0.29770991206169123,0.30534350872039795,0.29389312863349915,0.3015267252922058,0.290076345205307,0.29770991206169123,0.2862595319747925,0.29389312863349915,0.2862595319747925,0.3015267252922058,0.290076345205307,0.3015267252922058,0.3015267252922058,0.29389312863349915,0.28244274854660034,0.290076345205307,0.290076345205307,0.3091602921485901,0.27099236845970154,0.29770991206169123,0.2748091518878937,0.2862595319747925,0.29389312863349915,0.3015267252922058,0.29389312863349915,0.2862595319747925,0.2786259651184082,0.29389312863349915,0.28244274854660034,0.290076345205307,0.2862595319747925,0.29770991206169123,0.2786259651184082,0.2786259651184082,0.29770991206169123,0.3129771053791046,0.2748091518878937,0.2671755850315094,0.2748091518878937,0.3015267252922058,0.2633587718009949,0.2671755850315094,0.2671755850315094,0.2862595319747925,0.28244274854660034,0.29770991206169123,0.2671755850315094,0.2633587718009949,0.2633587718009949,0.2633587718009949,0.2633587718009949,0.2786259651184082,0.25190839171409607,0.290076345205307,0.3091602921485901,0.3320610821247101,0.3320610821247101,0.3396946489810944,0.3015267252922058,0.28244274854660034,0.2786259651184082,0.24427480995655054,0.21374045312404633,0.2328244298696518,0.21374045312404633,0.2328244298696518,0.21755725145339966,0.2290076315402985,0.24427480995655054,0.2328244298696518,0.18320611119270322,0.4656488597393036,0.7862595319747923,0.42748090624809276,0.0,0.17175573110580444,0.2290076315402985,0.2290076315402985,0.21755725145339966,0.21374045312404633,0.21374045312404633,0.22137404978275296,0.20229007303714752,0.2251908332109451,0.0,0.0,0.0,0.0,0.0,0.0,0.0,0.0,0.0,0.0,0.0,0.0,0.0,0.0,0.0,0.0,0.0,0.0,0.0,0.0,0.0,0.0,0.0
0.7890625,0.6640625,0.521484375,0.38671875,0.291015625,0.19140625,0.130859375,0.087890625,0.08203125,0.078125,0.08203125,0.083984375,0.09375,0.091796875,0.091796875,0.09375,0.099609375,0.09375,0.09765625,0.087890625,0.09375,0.08984375,0.08984375,0.095703125,0.103515625,0.103515625,0.12109375,0.138671875,0.150390625,0.15625,0.1875,0.203125,0.21875,0.224609375,0.23046875,0.220703125,0.22265625,0.2109375,0.208984375,0.193359375,0.197265625,0.1875,0.1953125,0.1796875,0.18359375,0.177734375,0.18359375,0.171875,0.16015625,0.162109375,0.171875,0.185546875,0.24609375,0.349609375,0.548828125,0.685546875,0.888671875,1.0,0.90625,0.603515625,0.283203125,0.080078125,0.056640625,0.05078125,0.056640625,0.048828125,0.052734375,0.044921875,0.021484375,0.0,0.037109375,0.037109375,0.05859375,0.0546875,0.060546875,0.04296875,0.044921875,0.041015625,0.046875,0.044921875,0.056640625,0.048828125,0.0,0.0,0.0,0.0,0.0,0.0,0.0,0.0,0.0,0.0,0.0,0.0,0.0,0.0,0.0,0.0,0.0,0.0,0.0,0.0,0.0,0.0,0.0,0.0,0.0,0.0,0.0,0.0,0.0,0.0,0.0,0.0,0.0,0.0,0.0,0.0,0.0,0.0,0.0,0.0,0.0,0.0,0.0,0.0,0.0,0.0,0.0,0.0,0.0,0.0,0.0,0.0,0.0,0.0,0.0,0.0,0.0,0.0,0.0,0.0,0.0,0.0,0.0,0.0,0.0,0.0,0.0,0.0,0.0,0.0,0.0,0.0,0.0,0.0,0.0,0.0,0.0,0.0,0.0,0.0,0.0,0.0,0.0,0.0,0.0,0.0,0.0,0.0,0.0,0.0,0.0,0.0,0.0,0.0,0.0,0.0,0.0,0.0,0.0,0.0,0.0,0.0,0.0,0.0,0.0
1.0,0.962633430957794,0.8167259693145752,0.5676156878471375,0.5035586953163146,0.5213522911071777,0.5427046418190002,0.564056932926178,0.5658363103866577,0.5516014099121094,0.5604982376098633,0.5693950057029724,0.5747330784797668,0.5658363103866577,0.5782918334007263,0.5747330784797668,0.5782918334007263,0.5765124559402465,0.5782918334007263,0.5747330784797668,0.5818505287170409,0.5782918334007263,0.5925266742706299,0.5907473564147949,0.6032028198242188,0.5818505287170409,0.5907473564147949,0.5925266742706299,0.6032028198242188,0.5871886014938354,0.5978647470474243,0.6014235019683837,0.6049821972846985,0.6049821972846985,0.6103202700614929,0.6067615747451782,0.628113865852356,0.6192170977592468,0.6156583428382874,0.6352313160896301,0.6316726207733153,0.6405693888664246,0.6370106935501098,0.6370106935501098,0.6405693888664246,0.6352313160896301,0.6494662165641784,0.6334519386291505,0.6209964156150817,0.6209964156150817,0.6298932433128357,0.6209964156150817,0.6245551705360411,0.6156583428382874,0.6120996475219727,0.6120996475219727,0.6156583428382874,0.6067615747451782,0.599644124507904,0.599644124507904,0.5978647470474243,0.5871886014938354,0.5925266742706299,0.5871886014938354,0.6156583428382874,0.6174377202987671,0.6423487663269042,0.6459074616432189,0.6779359579086304,0.7206405401229857,0.761565864086151,0.7224199175834655,0.5195729732513427,0.11921708285808562,0.0,0.00533807836472988,0.07117437571287155,0.2046263366937637,0.2704626321792602,0.33096083998680115,0.38967972993850714,0.435943067073822,0.4768683314323424,0.4964412748813628,0.5533807873725892,0.608540952205658,0.6548042893409729,0.6939501762390136,0.7241992950439452,0.7402135133743286,0.7526690363883971,0.7704626321792603,0.798932373523712,0.8131672739982606,0.8327401876449586,0.0,0.0,0.0,0.0,0.0,0.0,0.0,0.0,0.0,0.0,0.0,0.0,0.0,0.0,0.0,0.0,0.0,0.0,0.0,0.0,0.0,0.0,0.0,0.0,0.0,0.0,0.0,0.0,0.0,0.0,0.0,0.0,0.0,0.0,0.0,0.0,0.0,0.0,0.0,0.0,0.0,0.0,0.0,0.0,0.0,0.0,0.0,0.0,0.0,0.0,0.0,0.0,0.0,0.0,0.0,0.0,0.0,0.0,0.0,0.0,0.0,0.0,0.0,0.0,0.0,0.0,0.0,0.0,0.0,0.0,0.0,0.0,0.0,0.0,0.0,0.0,0.0,0.0,0.0,0.0,0.0,0.0,0.0,0.0,0.0,0.0,0.0,0.0,0.0,0.0,0.0,0.0
0.9895287752151488,0.7931936979293823,0.10209424048662184,0.013089004904031752,0.013089004904031752,0.03664921596646309,0.0,0.047120418399572365,0.018324607983231544,0.03403141349554061,0.0445026196539402,0.020942408591508862,0.03926701471209526,0.05235601961612701,0.07068062573671341,0.07853402942419052,0.07329843193292618,0.10994764417409897,0.08376963436603545,0.12303665280342102,0.1335078477859497,0.17277486622333527,0.18848167359828946,0.21989528834819794,0.12827225029468536,0.18586386740207672,0.1780104786157608,0.2015706747770309,0.18848167359828946,0.21727748215198522,0.2015706747770309,0.1439790576696396,0.10209424048662184,0.11256544291973114,0.08376963436603545,0.09424083679914473,0.07591623067855835,0.0628272220492363,0.08638743311166762,0.08638743311166762,0.05235601961612701,0.08638743311166762,0.08376963436603545,0.054973822087049484,0.06544502824544907,0.09162303805351256,0.08638743311166762,0.08376963436603545,0.0890052393078804,0.0890052393078804,0.054973822087049484,0.07853402942419052,0.08638743311166762,0.05235601961612701,0.10209424048662184,0.07068062573671341,0.03664921596646309,0.10209424048662184,0.10994764417409897,0.13612565398216248,0.15183246135711667,0.2015706747770309,0.19371727108955386,0.16230367124080655,0.1439790576696396,0.10471203923225401,0.07068062573671341,0.07853402942419052,0.03664921596646309,0.047120418399572365,0.013089004904031752,0.018324607983231544,0.0052356021478772155,0.05235601961612701,0.07068062573671341,0.13874346017837522,0.41884815692901606,0.9738219976425172,1.0,0.28272250294685364,0.03926701471209526,0.03403141349554061,0.054973822087049484,0.07329843193292618,0.03664921596646309,0.05759162455797196,0.04973822087049484,0.07591623067855835,0.047120418399572365,0.06806282699108125,0.07329843193292618,0.09424083679914473,0.0,0.0,0.0,0.0,0.0,0.0,0.0,0.0,0.0,0.0,0.0,0.0,0.0,0.0,0.0,0.0,0.0,0.0,0.0,0.0,0.0,0.0,0.0,0.0,0.0,0.0,0.0,0.0,0.0,0.0,0.0,0.0,0.0,0.0,0.0,0.0,0.0,0.0,0.0,0.0,0.0,0.0,0.0,0.0,0.0,0.0,0.0,0.0,0.0,0.0,0.0,0.0,0.0,0.0,0.0,0.0,0.0,0.0,0.0,0.0,0.0,0.0,0.0,0.0,0.0,0.0,0.0,0.0,0.0,0.0,0.0,0.0,0.0,0.0,0.0,0.0,0.0,0.0,0.0,0.0,0.0,0.0,0.0,0.0,0.0,0.0,0.0,0.0,0.0,0.0,0.0,0.0,0.0,0.0,0.0
1.0,0.9854166507720948,0.5416666865348816,0.12083332985639572,0.04583333432674407,0.07708333432674408,0.08124999701976776,0.08749999850988388,0.08124999701976776,0.06875000149011612,0.06458333134651185,0.06875000149011612,0.07083333283662796,0.06041666492819786,0.05833333358168601,0.05416666716337205,0.06041666492819786,0.05000000074505806,0.041666667908430086,0.03958333283662796,0.03750000149011612,0.027083333581686016,0.01666666753590107,0.018750000745058053,0.018750000745058053,0.0062500000931322575,0.0,0.0062500000931322575,0.010416666977107521,0.0062500000931322575,0.012500000186264515,0.029166666790843006,0.04374999925494194,0.06458333134651185,0.07916666567325592,0.1083333343267441,0.12083332985639572,0.12708333134651184,0.1354166716337204,0.1416666656732559,0.14583332836627963,0.13750000298023224,0.1291666626930237,0.13124999403953552,0.1354166716337204,0.1291666626930237,0.12291666865348817,0.12708333134651184,0.125,0.12083332985639572,0.1083333343267441,0.11249999701976776,0.11874999850988388,0.09583333134651185,0.10000000149011615,0.10416666418313981,0.1083333343267441,0.10208333283662796,0.10625000298023225,0.11874999850988388,0.13333334028720856,0.13333334028720856,0.1416666656732559,0.15416666865348816,0.16875000298023224,0.17708332836627963,0.1875,0.20000000298023224,0.20000000298023224,0.18125000596046448,0.16875000298023224,0.15208333730697632,0.1395833343267441,0.12083332985639572,0.11874999850988388,0.12083332985639572,0.13333334028720856,0.12708333134651184,0.13124999403953552,0.1395833343267441,0.15416666865348816,0.17083333432674408,0.21666666865348813,0.3499999940395355,0.5666666626930236,0.7958333492279053,0.981249988079071,0.9416666626930238,0.38958331942558283,0.018750000745058053,0.04791666567325593,0.09791667014360429,0.10000000149011615,0.08958332985639571,0.07916666567325592,0.08124999701976776,0.08958332985639571,0.07708333432674408,0.07291666418313983,0.07500000298023221,0.06666667014360428,0.0625,0.05416666716337205,0.0,0.0,0.0,0.0,0.0,0.0,0.0,0.0,0.0,0.0,0.0,0.0,0.0,0.0,0.0,0.0,0.0,0.0,0.0,0.0,0.0,0.0,0.0,0.0,0.0,0.0,0.0,0.0,0.0,0.0,0.0,0.0,0.0,0.0,0.0,0.0,0.0,0.0,0.0,0.0,0.0,0.0,0.0,0.0,0.0,0.0,0.0,0.0,0.0,0.0,0.0,0.0,0.0,0.0,0.0,0.0,0.0,0.0,0.0,0.0,0.0,0.0,0.0,0.0,0.0,0.0,0.0,0.0,0.0,0.0,0.0,0.0,0.0,0.0,0.0,0.0,0.0,0.0,0.0,0.0,0.0,0.0,0.0,0.0
1.0,0.8830313086509703,0.4135090708732605,0.13014827668666837,0.2092256993055344,0.22734761238098145,0.18780890107154846,0.179571658372879,0.179571658372879,0.1779242157936096,0.16968698799610138,0.16474464535713199,0.16639208793640134,0.16639208793640134,0.15815486013889313,0.1614497601985931,0.1713344305753708,0.1713344305753708,0.1565074175596237,0.14332784712314603,0.14168038964271545,0.14168038964271545,0.14168038964271545,0.1285008192062378,0.11202635616064073,0.10214167833328247,0.08401977270841599,0.0642504096031189,0.04777594655752183,0.034596376121044166,0.02141680382192135,0.004942339379340409,0.0,0.011532125063240528,0.02965403534471988,0.05271828547120095,0.09060955792665479,0.12520593404769897,0.14497528970241544,0.16803954541683197,0.1911037862300873,0.19769357144832608,0.1960461288690567,0.18616144359111783,0.1960461288690567,0.20757825672626493,0.2092256993055344,0.1911037862300873,0.1894563436508179,0.19439868628978726,0.1911037862300873,0.18616144359111783,0.1894563436508179,0.1911037862300873,0.18616144359111783,0.18121911585330963,0.18451400101184845,0.19769357144832608,0.1911037862300873,0.19275122880935666,0.19769357144832608,0.21087314188480377,0.21087314188480377,0.20757825672626493,0.20757825672626493,0.20098847150802607,0.1960461288690567,0.19769357144832608,0.20593081414699554,0.2092256993055344,0.1960461288690567,0.19275122880935666,0.18451400101184845,0.1911037862300873,0.18121911585330963,0.17462933063507077,0.1729818731546402,0.18121911585330963,0.1779242157936096,0.1729818731546402,0.1779242157936096,0.18451400101184845,0.18780890107154846,0.18451400101184845,0.1911037862300873,0.2042833566665649,0.21581548452377317,0.2092256993055344,0.19934101402759552,0.1762767732143402,0.18780890107154846,0.3855024576187133,0.747940719127655,0.9917627573013305,0.8945634365081787,0.429983526468277,0.10049423575401305,0.1614497601985931,0.18121911585330963,0.1317957192659378,0.13673806190490723,0.14168038964271545,0.13014827668666837,0.11861614137887952,0.12191104143857955,0.13014827668666837,0.12191104143857955,0.11861614137887952,0.13014827668666837,0.13014827668666837,0.11202635616064073,0.10708402097225188,0.0,0.0,0.0,0.0,0.0,0.0,0.0,0.0,0.0,0.0,0.0,0.0,0.0,0.0,0.0,0.0,0.0,0.0,0.0,0.0,0.0,0.0,0.0,0.0,0.0,0.0,0.0,0.0,0.0,0.0,0.0,0.0,0.0,0.0,0.0,0.0,0.0,0.0,0.0,0.0,0.0,0.0,0.0,0.0,0.0,0.0,0.0,0.0,0.0,0.0,0.0,0.0,0.0,0.0,0.0,0.0,0.0,0.0,0.0,0.0,0.0,0.0,0.0,0.0,0.0,0.0,0.0,0.0,0.0,0.0,0.0,0.0,0.0,0.0,0.0
0.9908536672592162,0.935975611209869,0.2652438879013061,0.0,0.1585365831851959,0.2804878056049347,0.27743902802467346,0.2926829159259796,0.2926829159259796,0.3140243887901306,0.3109756112098694,0.3445121943950653,0.3170731663703918,0.3201219439506531,0.3109756112098694,0.30792683362960815,0.3414634168148041,0.3597561120986938,0.3658536672592163,0.3902438879013062,0.40548780560493464,0.4268292784690857,0.4115853607654572,0.4603658616542816,0.4664634168148041,0.478658527135849,0.4817073047161102,0.5213414430618286,0.4969512224197388,0.5060975551605226,0.4878048896789551,0.4817073047161102,0.4695121943950652,0.4298780560493469,0.4176829159259796,0.3841463327407837,0.375,0.3597561120986938,0.3353658616542816,0.34756097197532654,0.3506097495555878,0.3353658616542816,0.3231707215309143,0.3414634168148041,0.3353658616542816,0.3231707215309143,0.3323170840740204,0.3201219439506531,0.3445121943950653,0.33841463923454285,0.3506097495555878,0.3353658616542816,0.34756097197532654,0.3567073047161102,0.33841463923454285,0.35365852713584894,0.3597561120986938,0.3841463327407837,0.4085365831851959,0.3597561120986938,0.375,0.38719511032104487,0.3810975551605225,0.3170731663703918,0.3506097495555878,0.35365852713584894,0.3201219439506531,0.32621949911117554,0.3109756112098694,0.3201219439506531,0.2652438879013061,0.3048780560493469,0.3018292784690857,0.32621949911117554,0.3109756112098694,0.2804878056049347,0.3445121943950653,0.6158536672592164,1.0,0.9847561120986938,0.3810975551605225,0.01524390280246735,0.1310975551605225,0.271341472864151,0.2469512224197388,0.2743902504444122,0.27743902802467346,0.29573169350624084,0.27743902802467346,0.28658536076545715,0.3109756112098694,0.2896341383457184,0.3170731663703918,0.3231707215309143,0.0,0.0,0.0,0.0,0.0,0.0,0.0,0.0,0.0,0.0,0.0,0.0,0.0,0.0,0.0,0.0,0.0,0.0,0.0,0.0,0.0,0.0,0.0,0.0,0.0,0.0,0.0,0.0,0.0,0.0,0.0,0.0,0.0,0.0,0.0,0.0,0.0,0.0,0.0,0.0,0.0,0.0,0.0,0.0,0.0,0.0,0.0,0.0,0.0,0.0,0.0,0.0,0.0,0.0,0.0,0.0,0.0,0.0,0.0,0.0,0.0,0.0,0.0,0.0,0.0,0.0,0.0,0.0,0.0,0.0,0.0,0.0,0.0,0.0,0.0,0.0,0.0,0.0,0.0,0.0,0.0,0.0,0.0,0.0,0.0,0.0,0.0,0.0,0.0,0.0,0.0,0.0,0.0
1.0,0.9202898740768432,0.5942028760910034,0.24275362491607666,0.12681159377098083,0.12318840622901918,0.09057971090078351,0.09057971090078351,0.05797101557254791,0.0724637657403946,0.032608695328235626,0.043478261679410934,0.028985507786273956,0.032608695328235626,0.032608695328235626,0.028985507786273956,0.014492753893136978,0.0362318828701973,0.021739130839705467,0.0362318828701973,0.028985507786273956,0.043478261679410934,0.028985507786273956,0.06521739065647125,0.06884057819843292,0.09420289844274522,0.07971014827489856,0.10507246106863022,0.09057971090078351,0.10869564861059187,0.11594203114509585,0.13405796885490415,0.13768115639686584,0.1557970941066742,0.13768115639686584,0.14855071902275085,0.14130434393882751,0.15942029654979706,0.14855071902275085,0.15942029654979706,0.1521739065647125,0.16666667163372037,0.15942029654979706,0.16304348409175873,0.16304348409175873,0.16666667163372037,0.14492753148078918,0.14130434393882751,0.13405796885490415,0.15942029654979706,0.14855071902275085,0.1557970941066742,0.13768115639686584,0.1521739065647125,0.1304347813129425,0.14855071902275085,0.14130434393882751,0.15942029654979706,0.14130434393882751,0.1521739065647125,0.1557970941066742,0.16666667163372037,0.1557970941066742,0.16304348409175873,0.14855071902275085,0.14855071902275085,0.12681159377098083,0.12681159377098083,0.11231884360313417,0.1304347813129425,0.11594203114509585,0.14130434393882751,0.12318840622901918,0.14855071902275085,0.14130434393882751,0.15942029654979706,0.14492753148078918,0.1557970941066742,0.1557970941066742,0.17028985917568204,0.17028985917568204,0.18115942180156708,0.17028985917568204,0.18115942180156708,0.1521739065647125,0.16304348409175873,0.16304348409175873,0.42391303181648254,0.7210144996643066,0.9818840622901917,0.7282608747482301,0.1884057968854904,0.09057971090078351,0.10144927352666855,0.0724637657403946,0.0724637657403946,0.05434782430529593,0.05797101557254791,0.03985507413744927,0.03985507413744927,0.0362318828701973,0.0362318828701973,0.010869565419852734,0.010869565419852734,0.0,0.021739130839705467,0.01811594143509865,0.0,0.0,0.0,0.0,0.0,0.0,0.0,0.0,0.0,0.0,0.0,0.0,0.0,0.0,0.0,0.0,0.0,0.0,0.0,0.0,0.0,0.0,0.0,0.0,0.0,0.0,0.0,0.0,0.0,0.0,0.0,0.0,0.0,0.0,0.0,0.0,0.0,0.0,0.0,0.0,0.0,0.0,0.0,0.0,0.0,0.0,0.0,0.0,0.0,0.0,0.0,0.0,0.0,0.0,0.0,0.0,0.0,0.0,0.0,0.0,0.0,0.0,0.0,0.0,0.0,0.0,0.0,0.0,0.0,0.0,0.0,0.0,0.0,0.0,0.0,0.0,0.0,0.0,0.0,0.0
0.9152542352676392,0.9237288236618042,0.5381355881690979,0.20762711763381958,0.14406779408454895,0.16101695597171783,0.14406779408454895,0.1186440661549568,0.10169491171836852,0.08474576473236085,0.06355932354927063,0.05508474633097648,0.05508474633097648,0.050847455859184265,0.050847455859184265,0.07203389704227449,0.059322033077478416,0.06779661029577257,0.05508474633097648,0.06355932354927063,0.06355932354927063,0.06779661029577257,0.06779661029577257,0.10169491171836852,0.10169491171836852,0.1186440661549568,0.13135592639446256,0.1525423675775528,0.15677966177463531,0.173728808760643,0.18220339715480802,0.1949152499437332,0.20338982343673703,0.21186441183090207,0.19067797064781186,0.18644067645072934,0.15677966177463531,0.13559322059154513,0.12288135290145873,0.1186440661549568,0.08898305147886275,0.09322033822536466,0.09322033822536466,0.09322033822536466,0.07627118378877638,0.08474576473236085,0.08050847798585892,0.08474576473236085,0.06355932354927063,0.06355932354927063,0.08474576473236085,0.1186440661549568,0.173728808760643,0.347457617521286,0.6313559412956238,0.8728813529014587,1.0,0.8389830589294432,0.4194915294647216,0.22033898532390594,0.16949152946472168,0.16101695597171783,0.11016949266195296,0.08898305147886275,0.06355932354927063,0.05508474633097648,0.03389830514788628,0.029661016538739208,0.0,0.00847457628697157,0.0,0.0,0.0,0.0,0.0,0.0,0.0,0.0,0.0,0.0,0.0,0.0,0.0,0.0,0.0,0.0,0.0,0.0,0.0,0.0,0.0,0.0,0.0,0.0,0.0,0.0,0.0,0.0,0.0,0.0,0.0,0.0,0.0,0.0,0.0,0.0,0.0,0.0,0.0,0.0,0.0,0.0,0.0,0.0,0.0,0.0,0.0,0.0,0.0,0.0,0.0,0.0,0.0,0.0,0.0,0.0,0.0,0.0,0.0,0.0,0.0,0.0,0.0,0.0,0.0,0.0,0.0,0.0,0.0,0.0,0.0,0.0,0.0,0.0,0.0,0.0,0.0,0.0,0.0,0.0,0.0,0.0,0.0,0.0,0.0,0.0,0.0,0.0,0.0,0.0,0.0,0.0,0.0,0.0,0.0,0.0,0.0,0.0,0.0,0.0,0.0,0.0,0.0,0.0,0.0,0.0,0.0,0.0,0.0,0.0,0.0,0.0,0.0,0.0,0.0,0.0,0.0
1.0,0.7838900089263917,0.04715127870440483,0.0,0.005893909838050604,0.03536345809698105,0.06876228004693985,0.10216110199689864,0.08644400537014006,0.1041257381439209,0.0923379138112068,0.10609037429094313,0.09823182970285416,0.11198428273200989,0.1041257381439209,0.11001964658498765,0.10805501043796541,0.11591355502605437,0.11198428273200989,0.12377209961414334,0.11591355502605437,0.13163064420223236,0.13163064420223236,0.13948918879032135,0.1375245600938797,0.15717092156410215,0.1473477333784103,0.16895873844623566,0.17288801074028015,0.19842828810215002,0.20235756039619443,0.2357563823461533,0.23968565464019775,0.2730844914913177,0.292730838060379,0.326129674911499,0.3457760214805603,0.3948919475078583,0.4184675812721253,0.4577603042125702,0.4734773933887482,0.4931237697601319,0.4616895914077759,0.4165029525756836,0.3379174768924713,0.2730844914913177,0.1925343871116638,0.1630648374557495,0.11787819117307664,0.10216110199689864,0.0746561884880066,0.08055009692907333,0.06286837160587311,0.0667976438999176,0.053045187145471566,0.06286837160587311,0.053045187145471566,0.06090373173356056,0.05108055099844934,0.058939095586538315,0.05500982329249383,0.06090373173356056,0.045186638832092285,0.06090373173356056,0.05500982329249383,0.058939095586538315,0.058939095586538315,0.0667976438999176,0.053045187145471566,0.06090373173356056,0.05108055099844934,0.06286837160587311,0.05108055099844934,0.06483300775289537,0.053045187145471566,0.0667976438999176,0.05697445943951606,0.0667976438999176,0.05500982329249383,0.06090373173356056,0.053045187145471566,0.06876228004693985,0.058939095586538315,0.06483300775289537,0.058939095586538315,0.06483300775289537,0.06090373173356056,0.0746561884880066,0.053045187145471566,0.06483300775289537,0.05697445943951606,0.0707269161939621,0.06286837160587311,0.06483300775289537,0.058939095586538315,0.0707269161939621,0.06090373173356056,0.0707269161939621,0.0707269161939621,0.07662082463502885,0.06876228004693985,0.08251473307609558,0.08055009692907333,0.09626719355583192,0.08840864151716231,0.11394891887903212,0.09037327766418456,0.10805501043796541,0.08447936922311783,0.08447936922311783,0.0746561884880066,0.08055009692907333,0.0707269161939621,0.08447936922311783,0.0746561884880066,0.08840864151716231,0.0746561884880066,0.09823182970285416,0.09037327766418456,0.08644400537014006,0.0373280942440033,0.11198428273200989,0.4931237697601319,0.958742618560791,0.911591351032257,0.20825147628784174,0.009823182597756382,0.039292730391025536,0.04322200268507004,0.09823182970285416,0.1001964658498764,0.11394891887903212,0.10805501043796541,0.11787819117307664,0.11394891887903212,0.11984282732009888,0.11984282732009888,0.1257367432117462,0.11984282732009888,0.13359528779983518,0.12770137190818784,0.1414538323879242,0.13359528779983518,0.14931237697601318,0.13948918879032135,0.159135565161705,0.1473477333784103,0.0,0.0,0.0,0.0,0.0,0.0,0.0,0.0,0.0,0.0,0.0,0.0,0.0,0.0,0.0,0.0,0.0,0.0,0.0,0.0,0.0,0.0,0.0,0.0,0.0,0.0,0.0,0.0,0.0,0.0,0.0,0.0,0.0,0.0,0.0,0.0,0.0,0.0,0.0,0.0
1.0,0.5068870782852173,0.35261708498001093,0.19559228420257568,0.12396693974733353,0.04958677664399147,0.03305784985423088,0.02479338832199573,0.022038567811250687,0.013774104416370394,0.022038567811250687,0.00826446246355772,0.013774104416370394,0.005509641952812672,0.019283747300505638,0.005509641952812672,0.011019283905625343,0.00826446246355772,0.01652892492711544,0.0,0.00826446246355772,0.0,0.011019283905625343,0.0,0.011019283905625343,0.01652892492711544,0.02754820883274078,0.03030303120613099,0.044077135622501366,0.052341599017381675,0.07162534445524216,0.08815427124500273,0.11845730245113373,0.1294765770435333,0.1597796082496643,0.1652892529964447,0.19559228420257568,0.2011019289493561,0.2148760259151459,0.1983471065759659,0.1983471065759659,0.1542699784040451,0.14325068891048431,0.11019283533096312,0.09641873091459276,0.07438016682863235,0.07438016682863235,0.04958677664399147,0.06060606241226198,0.04958677664399147,0.052341599017381675,0.041322313249111176,0.044077135622501366,0.03305784985423088,0.041322313249111176,0.041322313249111176,0.041322313249111176,0.03581267222762108,0.04683195427060127,0.041322313249111176,0.044077135622501366,0.038567494601011276,0.052341599017381675,0.04683195427060127,0.057851240038871765,0.04958677664399147,0.057851240038871765,0.052341599017381675,0.05509641766548156,0.052341599017381675,0.057851240038871765,0.044077135622501366,0.057851240038871765,0.044077135622501366,0.06336088478565216,0.044077135622501366,0.05509641766548156,0.041322313249111176,0.057851240038871765,0.04683195427060127,0.05509641766548156,0.044077135622501366,0.05509641766548156,0.052341599017381675,0.06060606241226198,0.04958677664399147,0.06336088478565216,0.057851240038871765,0.057851240038871765,0.052341599017381675,0.057851240038871765,0.057851240038871765,0.06060606241226198,0.05509641766548156,0.06611569970846176,0.05509641766548156,0.07162534445524216,0.05509641766548156,0.07438016682863235,0.06611569970846176,0.09366390854120255,0.08539944887161253,0.10192837566137312,0.10192837566137312,0.1515151560306549,0.1707988977432251,0.1515151560306549,0.13223139941692352,0.13498622179031372,0.11845730245113373,0.12396693974733353,0.09917355328798294,0.07713498920202254,0.057851240038871765,0.07162534445524216,0.06060606241226198,0.05509641766548156,0.05509641766548156,0.06060606241226198,0.057851240038871765,0.03030303120613099,0.06336088478565216,0.4600550830364227,0.9779614210128784,0.768595039844513,0.38567492365837097,0.25068870186805725,0.13223139941692352,0.07713498920202254,0.041322313249111176,0.05509641766548156,0.03030303120613099,0.03581267222762108,0.022038567811250687,0.038567494601011276,0.03030303120613099,0.041322313249111176,0.02479338832199573,0.03030303120613099,0.03030303120613099,0.038567494601011276,0.03030303120613099,0.03305784985423088,0.02479338832199573,0.044077135622501366,0.03581267222762108,0.0,0.0,0.0,0.0,0.0,0.0,0.0,0.0,0.0,0.0,0.0,0.0,0.0,0.0,0.0,0.0,0.0,0.0,0.0,0.0,0.0,0.0,0.0,0.0,0.0,0.0,0.0,0.0,0.0,0.0,0.0,0.0,0.0,0.0,0.0,0.0,0.0,0.0,0.0,0.0,0.0
1.0,0.8618524074554444,0.28728413581848145,0.0,0.2291993647813797,0.2543171048164368,0.2590266764163971,0.27943485975265503,0.26059654355049133,0.2543171048164368,0.26844584941864014,0.2810046970844268,0.27786499261856085,0.2731554210186005,0.2810046970844268,0.293563574552536,0.29513344168663025,0.29042387008667,0.2998430132865906,0.3061224520206452,0.31240189075469965,0.3186813294887543,0.3218210339546204,0.3296703398227692,0.33281004428863525,0.3281004726886749,0.3437990546226501,0.3500784933567047,0.3422291874885559,0.3375196158885956,0.3485086262226105,0.3516483604907989,0.3532181978225708,0.3500784933567047,0.36263737082481373,0.3846153914928436,0.3940345346927642,0.38932496309280396,0.3846153914928436,0.37362638115882874,0.3516483604907989,0.33594977855682373,0.331240177154541,0.32339090108871454,0.31554159522056574,0.3076923191547393,0.30926215648651123,0.3186813294887543,0.30926215648651123,0.3061224520206452,0.31397172808647156,0.32339090108871454,0.32496076822280884,0.3281004726886749,0.33437991142272944,0.3375196158885956,0.3375196158885956,0.33437991142272944,0.3453689217567444,0.3485086262226105,0.3375196158885956,0.33281004428863525,0.33437991142272944,0.3390894830226898,0.331240177154541,0.31711146235466003,0.3186813294887543,0.3186813294887543,0.30926215648651123,0.31083202362060547,0.31397172808647156,0.3186813294887543,0.31083202362060547,0.3045525848865509,0.3061224520206452,0.31554159522056574,0.30926215648651123,0.3045525848865509,0.3076923191547393,0.3061224520206452,0.3014128804206848,0.2982731461524964,0.30298271775245667,0.31240189075469965,0.2967033088207245,0.31083202362060547,0.331240177154541,0.3437990546226501,0.354788064956665,0.3516483604907989,0.3390894830226898,0.3422291874885559,0.33437991142272944,0.31711146235466003,0.3076923191547393,0.30926215648651123,0.30298271775245667,0.3076923191547393,0.3296703398227692,0.4050235450267792,0.6263736486434937,0.9450549483299256,0.9324960708618162,0.37990581989288325,0.009419152513146402,0.232339084148407,0.2747252881526947,0.2747252881526947,0.2747252881526947,0.2637362778186798,0.27001568675041193,0.27786499261856085,0.2731554210186005,0.2715855538845062,0.2825745642185212,0.2888540029525757,0.2888540029525757,0.2888540029525757,0.2982731461524964,0.3076923191547393,0.31083202362060547,0.0,0.0,0.0,0.0,0.0,0.0,0.0,0.0,0.0,0.0,0.0,0.0,0.0,0.0,0.0,0.0,0.0,0.0,0.0,0.0,0.0,0.0,0.0,0.0,0.0,0.0,0.0,0.0,0.0,0.0,0.0,0.0,0.0,0.0,0.0,0.0,0.0,0.0,0.0,0.0,0.0,0.0,0.0,0.0,0.0,0.0,0.0,0.0,0.0,0.0,0.0,0.0,0.0,0.0,0.0,0.0,0.0,0.0,0.0,0.0,0.0,0.0,0.0,0.0,0.0,0.0
1.0,0.6666666865348815,0.3827160596847534,0.34567901492118835,0.2962962985038757,0.2880658507347107,0.25514402985572815,0.2839506268501282,0.25102880597114563,0.24691358208656314,0.2427983582019805,0.25514402985572815,0.25102880597114563,0.2716049253940582,0.25102880597114563,0.24691358208656314,0.17695473134517667,0.193415641784668,0.14403292536735535,0.13991770148277283,0.1275720149278641,0.1810699552297592,0.23456789553165436,0.2921810746192932,0.27983540296554565,0.31687241792678833,0.3292181193828583,0.33333334326744074,0.2962962985038757,0.27572017908096313,0.22222222387790683,0.2427983582019805,0.22222222387790683,0.24691358208656314,0.2427983582019805,0.2386831343173981,0.1975308656692505,0.2263374477624893,0.1975308656692505,0.201646089553833,0.20576131343841553,0.2263374477624893,0.20576131343841553,0.18518517911434174,0.1275720149278641,0.1316872388124466,0.10288065671920776,0.04115226492285728,0.0,0.04526748880743981,0.08230452984571457,0.1358024626970291,0.14403292536735535,0.193415641784668,0.201646089553833,0.24691358208656314,0.2633744776248932,0.2839506268501282,0.27983540296554565,0.2921810746192932,0.25102880597114563,0.193415641784668,0.35802468657493597,0.7201645970344543,0.41563785076141363,0.16872428357601166,0.193415641784668,0.23045267164707184,0.1975308656692505,0.23045267164707184,0.14814814925193784,0.14814814925193784,0.09053497761487962,0.07818929851055145,0.04115226492285728,0.04526748880743981,0.0,0.0,0.0,0.0,0.0,0.0,0.0,0.0,0.0,0.0,0.0,0.0,0.0,0.0,0.0,0.0,0.0,0.0,0.0,0.0,0.0,0.0,0.0,0.0,0.0,0.0,0.0,0.0,0.0,0.0,0.0,0.0,0.0,0.0,0.0,0.0,0.0,0.0,0.0,0.0,0.0,0.0,0.0,0.0,0.0,0.0,0.0,0.0,0.0,0.0,0.0,0.0,0.0,0.0,0.0,0.0,0.0,0.0,0.0,0.0,0.0,0.0,0.0,0.0,0.0,0.0,0.0,0.0,0.0,0.0,0.0,0.0,0.0,0.0,0.0,0.0,0.0,0.0,0.0,0.0,0.0,0.0,0.0,0.0,0.0,0.0,0.0,0.0,0.0,0.0,0.0,0.0,0.0,0.0,0.0,0.0,0.0,0.0,0.0,0.0,0.0,0.0,0.0,0.0,0.0,0.0,0.0,0.0,0.0,0.0,0.0
