Amp,t
57.0,0.0
532.5282581475767,0.001
350.89262614623664,0.002
-236.8926261462367,0.003
-418.5282581475768,0.004
58.99999999999988,0.005
539.5282581475769,0.006
361.8926261462367,0.007
-219.8926261462364,0.008
-399.5282581475766,0.009000000000000001
,0.01
555.5282581475767,0.011
374.89262614623607,0.012
-213.89262614623772,0.013000000000000001
-395.5282581475769,0.014
76.99999999999963,0.015
548.5282581475767,0.016
361.89262614623544,0.017
-228.8926261462376,0.018000000000000002
-414.52825814757693,0.019
57.99999999999951,0.02
533.5282581475772,0.021
350.89262614623703,0.022
-237.89262614623613,0.023
-418.5282581475764,0.024
61.000000000001165,0.025
541.5282581475777,0.026000000000000002
364.89262614623715,0.027
-218.892626146236,0.028
-399.528258147577,0.029
,0.03
554.5282581475765,0.031
374.8926261462372,0.032
-213.8926261462388,0.033
-397.5282581475759,0.034
76.0000000000027,0.035
547.5282581475776,0.036000000000000004
361.89262614623726,0.037
-228.89262614623578,0.038
-414.5282581475771,0.039
60.99999999999902,0.04
536.5282581475776,0.041
352.89262614623453,0.042
-233.89262614623857,0.043000000000000003
-414.5282581475771,0.044
61.9999999999989,0.045
541.5282581475765,0.046
365.8926261462375,0.047
-217.8926261462385,0.048
-398.528258147576,0.049
,0.05
557.5282581475775,0.051000000000000004
376.89262614623186,0.052000000000000005
-211.8926261462384,0.053
-397.5282581475772,0.054
76.0000000000022,0.055
548.5282581475764,0.056
363.8926261462348,0.057
-227.8926261462354,0.058
-413.52825814757614,0.059000000000000004
58.99999999999853,0.06
534.5282581475774,0.061
351.8926261462378,0.062
-235.89262614623817,0.063
-417.5282581475773,0.064
59.00000000000196,0.065
540.5282581475785,0.066
362.892626146235,0.067
-220.89262614624096,0.068
-401.5282581475762,0.069
,0.07
554.5282581475774,0.07100000000000001
373.89262614623226,0.07200000000000001
-214.89262614623226,0.073
-399.52825814757733,0.074
72.00000000000172,0.075
542.5282581475763,0.076
358.8926261462352,0.077
-231.892626146235,0.078
-417.52825814757625,0.079
55.99999999999804,0.08
529.5282581475773,0.081
346.8926261462325,0.082
-239.89262614623777,0.083
-421.52825814757523,0.084
56.00000000000147,0.085
536.5282581475783,0.08600000000000001
359.8926261462297,0.08700000000000001
-222.89262614623482,0.088
-402.5282581475785,0.089
,0.09
552.5282581475772,0.091
372.8926261462384,0.092
-215.89262614623755,0.093
-398.5282581475775,0.094
73.00000000000122,0.095
545.5282581475783,0.096
359.8926261462356,0.097
-229.89262614624033,0.098
-414.5282581475764,0.099
59.000000000004654,0.1
534.5282581475772,0.101
353.89262614623283,0.10200000000000001
-232.89262614624312,0.10300000000000001
-413.5282581475732,0.10400000000000001
64.00000000000098,0.105
544.5282581475781,0.106
369.8926261462416,0.107
-213.89262614623442,0.108
-394.5282581475765,0.109
84.0000000000044,0.11
560.5282581475792,0.111
379.8926261462388,0.112
-205.8926261462372,0.113
-389.52825814757546,0.114
83.00000000000784,0.115
556.5282581475759,0.116
369.892626146236,0.117
-219.89262614623993,0.11800000000000001
-406.5282581475744,0.11900000000000001
66.99999999999706,0.12
542.5282581475769,0.121
358.8926261462332,0.122
-228.89262614623124,0.123
-410.52825814757773,0.124
67.0000000000005,0.125
546.5282581475781,0.126
370.89262614623044,0.127
-212.89262614623402,0.128
-391.52825814757665,0.129
85.00000000000392,0.13
560.5282581475791,0.131
379.8926261462277,0.132
-208.8926261462368,0.133
-393.5282581475756,0.134
78.00000000000735,0.135
549.5282581475801,0.136
364.8926261462364,0.137
-226.8926261462396,0.138
-413.52825814757455,0.139
61.00000000001078,0.14
534.5282581475813,0.14100000000000001
352.8926261462336,0.14200000000000002
-235.89262614624232,0.14300000000000002
-417.52825814757347,0.14400000000000002
59.0,0.145
538.5282581475735,0.146
359.8926261462423,0.147
-223.89262614623362,0.148
-402.5282581475768,0.149
74.00000000000342,0.15
551.5282581475745,0.151
371.8926261462396,0.152
-215.8926261462364,0.153
-399.52825814757574,0.154
73.00000000000686,0.155
545.5282581475756,0.156
357.8926261462368,0.157
-234.8926261462392,0.158
-418.5282581475747,0.159
55.99999999999608,0.16
530.5282581475767,0.161
348.892626146234,0.162
-239.89262614624198,0.163
-421.52825814757364,0.164
55.99999999999951,0.165
534.5282581475777,0.166
357.89262614623124,0.167
-224.8926261462447,0.168
-402.5282581475726,0.169
75.00000000000294,0.17
552.5282581475788,0.171
371.89262614622845,0.17200000000000001
-215.8926261462475,0.17300000000000001
-399.5282581475715,0.17400000000000002
74.00000000000637,0.17500000000000002
546.5282581475755,0.176
361.8926261462372,0.177
-229.89262614622731,0.178
-416.52825814757927,0.179
55.999999999995595,0.18
531.5282581475765,0.181
347.8926261462344,0.182
-239.8926261462301,0.183
-421.52825814757813,0.184
56.99999999999902,0.185
537.5282581475776,0.186
359.89262614623163,0.187
-222.89262614623283,0.188
-402.5282581475771,0.189
75.00000000000246,0.19
551.5282581475786,0.191
370.89262614622885,0.192
-217.8926261462356,0.193
-403.528258147576,0.194
70.00000000000588,0.195
545.5282581475797,0.196
358.89262614622606,0.197
-230.8926261462384,0.198
-417.528258147575,0.199
55.000000000009315,0.2
530.5282581475808,0.201
346.8926261462348,0.202
-239.89262614624118,0.203
-421.5282581475739,0.20400000000000001
55.00000000001274,0.20500000000000002
534.5282581475818,0.20600000000000002
358.89262614622055,0.20700000000000002
-224.89262614625545,0.20800000000000002
-403.5282581475773,0.209
73.00000000000196,0.21
552.5282581475785,0.211
372.89262614622925,0.212
-214.89262614622368,0.213
-398.5282581475806,0.214
73.99999999999118,0.215
546.5282581475751,0.216
358.892626146238,0.217
-231.892626146238,0.218
-417.5282581475752,0.219
56.000000000008825,0.22
531.5282581475806,0.221
348.8926261462237,0.222
-239.89262614622925,0.223
-421.52825814757847,0.224
54.99999999999804,0.225
535.5282581475773,0.226
358.8926261462325,0.227
-224.89262614624357,0.228
-403.52825814757307,0.229
73.00000000001569,0.23
551.5282581475827,0.231
369.8926261462412,0.232
-217.89262614623482,0.233
-401.52825814757637,0.234
71.0000000000049,0.23500000000000001
542.5282581475794,0.23600000000000002
355.8926261462269,0.23700000000000002
-236.89262614624909,0.23800000000000002
-422.5282581475709,0.23900000000000002
49.999999999994124,0.24
522.528258147576,0.241
336.8926261462356,0.242
-254.89262614624033,0.243
-440.52825814757426,0.244
32.00000000001176,0.245
507.5282581475727,0.246
324.89262614624437,0.247
-260.89262614623163,0.248
-442.5282581475776,0.249
33.00000000000098,0.25
511.52825814757813,0.251
330.8926261462301,0.252
-255.8926261462459,0.253
-436.5282581475721,0.254
38.9999999999902,0.255
515.5282581475749,0.256
334.8926261462388,0.257
-252.8926261462372,0.258
-433.52825814757546,0.259
42.000000000007844,0.26
520.5282581475803,0.261
341.89262614622453,0.262
-241.89262614625147,0.263
-414.52825814757,0.264
72.99999999999706,0.265
568.5282581475769,0.266
413.8926261462332,0.267
-140.89262614624272,0.268
-288.5282581475733,0.269
223.0000000000147,0.27
734.5282581475824,0.271
586.892626146219,0.272
30.107373853743013,0.273
-127.52825814757665,0.274
368.0000000000039,0.275
861.5282581475791,0.276
691.8926261462277,0.277
114.10737385375171,0.278
-60.528258147571194,0.279
422.00000000002154,0.28
907.5282581475846,0.281
732.8926261462134,0.28200000000000003
153.10737385373744,0.28300000000000003
-23.528258147574547,0.28400000000000003
456.0000000000108,0.28500000000000003
934.5282581475813,0.28600000000000003
749.8926261462221,0.28700000000000003
154.10737385374614,0.28800000000000003
-41.5282581475779,0.289
413.0,0.29
863.5282581475691,0.291
648.8926261462539,0.292
24.107373853777858,0.293
-198.5282581475812,0.294
233.99999999998923,0.295
671.5282581475745,0.296
452.8926261462396,0.297
-163.8926261462364,0.298
-367.52825814757574,0.299
93.00000000000686,0.3
559.5282581475713,0.301
372.8926261462483,0.302
-220.8926261462277,0.303
-405.5282581475791,0.304
65.99999999999608,0.305
543.5282581475767,0.306
362.892626146234,0.307
-222.89262614624198,0.308
-404.52825814757364,0.309
71.00000000001373,0.31
547.5282581475733,0.311
363.8926261462427,0.312
-224.89262614623323,0.313
-410.528258147577,0.314
58.00000000000294,0.315
531.5282581475788,0.316
342.89262614622845,0.317
-250.8926261462475,0.318
-437.5282581475715,0.319
33.99999999999216,0.32
508.52825814757546,0.321
321.8926261462372,0.322
-265.8926261462388,0.323
-449.52825814757483,0.324
28.000000000009802,0.325
507.5282581475809,0.326
329.89262614622294,0.327
-254.89262614625306,0.328
-434.5282581475694,0.329
42.99999999999902,0.33
519.5282581475776,0.331
338.89262614623163,0.332
-248.89262614624437,0.333
-433.5282581475727,0.334
40.00000000001666,0.335
512.5282581475831,0.336
326.89262614621737,0.337
-265.8926261462586,0.338
-452.528258147576,0.339
19.000000000005883,0.34
495.5282581475797,0.341
314.89262614622606,0.342
-273.8926261462499,0.343
-455.5282581475706,0.34400000000000003
22.000000000023526,0.34500000000000003
500.5282581475851,0.34600000000000003
324.8926261462118,0.34700000000000003
-260.89262614626415,0.34800000000000003
-440.5282581475739,0.34900000000000003
38.00000000001275,0.35000000000000003
517.5282581475818,0.35100000000000003
335.8926261462436,0.352
-249.8926261462325,0.353
-433.5282581475773,0.354
39.00000000000196,0.355
512.5282581475697,0.356
327.89262614625227,0.357
-263.89262614622373,0.358
-448.5282581475806,0.359
23.999999999991182,0.36
502.5282581475752,0.361
318.892626146238,0.362
-268.892626146238,0.363
-450.5282581475752,0.364
26.000000000008825,0.365
506.5282581475718,0.366
328.89262614624676,0.367
-253.8926261462293,0.368
-431.52825814757847,0.369
43.999999999998046,0.37
523.5282581475773,0.371
344.8926261462325,0.372
-241.89262614624357,0.373
-425.52825814757307,0.374
45.99999999998726,0.375
518.528258147574,0.376
333.8926261462412,0.377
-257.8926261462349,0.378
-443.52825814757637,0.379
30.000000000004903,0.38
506.5282581475794,0.381
322.8926261462269,0.382
-264.8926261462491,0.383
-446.5282581475709,0.384
30.999999999994124,0.385
510.528258147576,0.386
332.8926261462356,0.387
-250.89262614624033,0.388
-429.52825814757426,0.389
48.00000000001177,0.39
526.5282581475815,0.391
345.89262614622135,0.392
-240.89262614625466,0.393
-422.52825814756875,0.394
50.00000000000098,0.395
523.5282581475781,0.396
339.8926261462301,0.397
-250.8926261462459,0.398
-437.5282581475721,0.399
38.00000000001862,0.4
512.5282581475836,0.401
329.89262614621583,0.402
-258.8926261462602,0.403
-439.52825814757546,0.404
38.000000000007844,0.405
518.5282581475803,0.406
341.89262614622453,0.40700000000000003
-240.89262614625147,0.40800000000000003
-420.52825814757875,0.40900000000000003
56.00000000002549,0.41000000000000003
532.5282581475769,0.41100000000000003
354.89262614621026,0.41200000000000003
-233.89262614624272,0.41300000000000003
-416.52825814756454,0.41400000000000003
57.0000000000147,0.41500000000000004
531.5282581475913,0.41600000000000004
344.89262614626494,0.417
-245.89262614623402,0.418
-429.5282581475854,0.419
46.00000000000392,0.42
520.5282581475703,0.421
338.8926261462277,0.422
-249.89262614622533,0.423
-430.5282581475712,0.424
46.99999999999314,0.425
528.5282581475669,0.426
351.8926261462364,0.427
-230.89262614621657,0.428
-409.52825814757455,0.429
68.99999999998236,0.43
549.5282581475813,0.431
366.8926261462451,0.432
-217.89262614625386,0.433
-400.5282581475779,0.434
74.00000000002842,0.435
548.5282581475778,0.436
361.89262614625386,0.437
-230.8926261462451,0.438
-415.5282581475812,0.439
58.00000000001764,0.44
534.5282581475745,0.441
351.89262614621657,0.442
-234.8926261462364,0.443
-417.528258147567,0.444
61.000000000006864,0.445
541.5282581475713,0.446
363.8926261462253,0.447
-219.8926261462277,0.448
-398.52825814757034,0.449
79.99999999999608,0.45
558.5282581475853,0.451
377.892626146234,0.452
-209.89262614626494,0.453
-392.52825814757364,0.454
81.9999999999853,0.455
555.5282581475822,0.456
370.8926261462427,0.457
-220.89262614625625,0.458
-406.528258147577,0.459
69.00000000003136,0.46
545.5282581475788,0.461
361.8926261462055,0.462
-225.8926261462475,0.463
-408.52825814758035,0.464
69.00000000002059,0.465
550.5282581475755,0.466
373.8926261462142,0.467
-208.8926261462388,0.468
-386.5282581475661,0.46900000000000003
91.0000000000098,0.47000000000000003
568.5282581475897,0.47100000000000003
389.89262614622294,0.47200000000000003
-196.89262614627603,0.47300000000000003
-379.5282581475694,0.47400000000000003
94.99999999999902,0.47500000000000003
568.5282581475864,0.47600000000000003
383.89262614623163,0.47700000000000004
-207.89262614626733,0.47800000000000004
-391.5282581475727,0.47900000000000004
82.99999999998825,0.48
558.5282581475655,0.481
376.89262614624033,0.482
-210.89262614621265,0.483
-392.528258147576,0.484
84.99999999997746,0.485
567.5282581475797,0.486
390.8926261462491,0.487
-191.89262614624988,0.488
-369.5282581475794,0.489
109.00000000002352,0.49
585.5282581475764,0.491
406.89262614625784,0.492
-178.89262614624118,0.493
-362.52825814758273,0.494
111.00000000001275,0.495
583.5282581475731,0.496
399.89262614622055,0.497
-191.8926261462325,0.498
-375.5282581475685,0.499
98.00000000000196,0.5
572.5282581475697,0.501
391.89262614622925,0.502
-194.89262614622373,0.503
-376.5282581475718,0.504
100.99999999999119,0.505
581.528258147584,0.506
406.892626146238,0.507
-176.89262614626097,0.508
-355.5282581475752,0.509
121.9999999999804,0.51
598.5282581475806,0.511
419.89262614624676,0.512
-166.89262614625227,0.513
-349.52825814757847,0.514
123.00000000002646,0.515
598.5282581475773,0.516
411.8926261462094,0.517
-178.89262614624357,0.518
-364.5282581475642,0.519
110.00000000001569,0.52
585.528258147574,0.521
402.89262614621816,0.522
-185.89262614623487,0.523
-368.52825814756756,0.524
109.0000000000049,0.525
589.5282581475882,0.526
411.8926261462269,0.527
-170.8926261462721,0.528
-349.5282581475709,0.529
127.99999999999413,0.53
605.5282581475849,0.531
425.8926261462356,0.532
-161.89262614626335,0.533
-345.5282581475742,0.534
127.00000000004019,0.535
601.5282581475815,0.536
413.8926261461983,0.537
-177.89262614625466,0.538
-363.5282581475776,0.539
110.0000000000294,0.54
585.5282581475782,0.541
402.892626146207,0.542
-184.8926261462459,0.543
-368.52825814756335,0.544
109.00000000001863,0.545
587.5282581475924,0.546
409.89262614621583,0.547
-175.8926261462372,0.548
-355.52825814756665,0.549
120.00000000000784,0.55
596.5282581475891,0.551
413.89262614622453,0.552
-174.8926261462745,0.553
-360.52825814757,0.554
110.0000000000539,0.555
582.5282581475858,0.556
394.89262614618724,0.557
-198.89262614626574,0.558
-386.5282581475733,0.559
85.00000000004313,0.56
557.5282581475824,0.561
371.892626146196,0.562
-218.892626146257,0.5630000000000001
-402.5282581475591,0.5640000000000001
73.00000000003234,0.5650000000000001
550.5282581475967,0.5660000000000001
370.8926261462047,0.5670000000000001
-213.8926261462483,0.5680000000000001
-395.52825814756244,0.5690000000000001
80.00000000002157,0.5700000000000001
557.5282581475933,0.5710000000000001
374.89262614621344,0.5720000000000001
-215.89262614628558,0.5730000000000001
-400.5282581475658,0.5740000000000001
70.00000000006763,0.5750000000000001
541.5282581475899,0.5760000000000001
351.89262614626807,0.577
-239.89262614623084,0.578
-427.52825814758666,0.579
45.00000000000001,0.58
518.5282581475691,0.581
331.8926261462768,0.582
-257.89262614622214,0.583
-441.52825814758995,0.584
34.99999999998922,0.585
513.5282581475658,0.586
334.8926261462396,0.587
-251.89262614621344,0.588
-432.52825814757574,0.589
43.99999999997844,0.59
518.52825814758,0.591
338.8926261462483,0.592
-249.8926261462047,0.593
-435.5282581475791,0.594
36.99999999996766,0.595
509.52825814757665,0.596
321.892626146257,0.597
-270.892626146242,0.598
-457.52825814758245,0.599
16.000000000013728,0.6
490.5282581475733,0.601
306.8926261462657,0.602
-282.8926261462332,0.603
-465.52825814758575,0.604
10.000000000002945,0.605
489.52825814757,0.606
310.89262614622845,0.607
-272.89262614622453,0.608
-451.5282581475715,0.609
24.999999999992166,0.61
501.52825814756665,0.611
321.8926261462372,0.612
-264.89262614621583,0.613
-448.52825814757483,0.614
24.999999999981384,0.615
497.5282581475809,0.616
310.8926261462459,0.617
-281.89262614625306,0.618
-467.52825814757813,0.619
5.000000000027447,0.62
481.5282581475776,0.621
297.89262614625466,0.622
-291.89262614624437,0.623
-473.5282581475815,0.624
5.000000000016667,0.625
485.52825814757426,0.626
308.89262614621737,0.627
-273.8926261462356,0.628
-452.52825814756727,0.629
25.000000000005887,0.63
500.5282581475709,0.631
320.89262614622606,0.632
-264.8926261462269,0.633
-447.5282581475706,0.634
24.999999999995104,0.635
499.5282581475851,0.636
312.8926261462348,0.637
-279.89262614626415,0.638
-465.5282581475739,0.639
7.9999999999843245,0.64
484.5282581475818,0.641
301.8926261462436,0.642
-286.89262614625545,0.643
-467.5282581475773,0.644
10.000000000030388,0.645
490.52825814757847,0.646
312.8926261462063,0.647
-270.89262614624676,0.648
-449.5282581475806,0.649
29.000000000019607,0.65
507.5282581475752,0.651
328.892626146215,0.652
-259.892626146238,0.653
-443.52825814756636,0.654
30.000000000008825,0.655
503.5282581475894,0.656
317.8926261462237,0.657
-273.89262614627523,0.658
-459.5282581475697,0.659
15.999999999998046,0.66
491.52825814758603,0.661
307.8926261462325,0.662
-281.89262614626654,0.663
-463.52825814757307,0.664
15.000000000044109,0.665
495.52825814758273,0.666
317.89262614619514,0.667
-265.89262614625784,0.668
-445.52825814757637,0.669
34.000000000033324,0.67
510.5282581475794,0.671
331.8926261462039,0.672
-255.89262614624909,0.673
-438.5282581475621,0.674
35.000000000022546,0.675
507.52825814759365,0.676
321.8926261462126,0.677
-269.8926261462404,0.678
-454.52825814756545,0.679
20.000000000011767,0.68
494.5282581475903,0.681
309.89262614622135,0.682
-277.8926261462776,0.683
-460.52825814756875,0.684
20.00000000005783,0.685
498.528258147587,0.686
323.89262614618406,0.687
-259.8926261462689,0.6880000000000001
-439.5282581475721,0.6890000000000001
40.00000000004705,0.6900000000000001
518.5282581475836,0.6910000000000001
338.89262614619275,0.6920000000000001
-248.89262614626023,0.6930000000000001
-431.5282581475579,0.6940000000000001
41.000000000036266,0.6950000000000001
513.5282581475979,0.6960000000000001
327.8926261462015,0.6970000000000001
-263.8926261462515,0.6980000000000001
-449.52825814756125,0.6990000000000001
25.000000000025487,0.7000000000000001
499.52825814759456,0.7010000000000001
316.89262614621026,0.7020000000000001
-271.89262614628876,0.7030000000000001
-454.5282581475821,0.704
24.999999999957865,0.705
503.52825814757364,0.706
326.89262614626494,0.707
-256.892626146234,0.708
-435.5282581475854,0.709
43.00000000000393,0.71
520.5282581475703,0.711
339.89262614627364,0.712
-247.89262614622533,0.713
-430.52825814758876,0.714
42.99999999999314,0.715
516.5282581475669,0.716
329.8926261462364,0.717
-261.89262614621657,0.718
-447.52825814757455,0.719
27.999999999982364,0.72
502.5282581475812,0.721
319.8926261462451,0.722
-270.8926261462079,0.723
-452.5282581475779,0.724
25.999999999971585,0.725
506.5282581475779,0.726
329.89262614625386,0.727
-253.8926261462451,0.728
-431.5282581475812,0.729
46.00000000001765,0.73
522.5282581475745,0.731
343.89262614626256,0.732
-242.8926261462364,0.733
-425.52825814758455,0.734
47.000000000006864,0.735
520.5282581475713,0.736
333.8926261462253,0.737
-257.8926261462277,0.738
-444.52825814757034,0.739
28.999999999996085,0.74
503.5282581475679,0.741
320.892626146234,0.742
-267.89262614621896,0.743
-449.52825814757364,0.744
28.999999999985306,0.745
507.5282581475821,0.746
330.8926261462427,0.747
-251.89262614625625,0.748
-431.528258147577,0.749
47.99999999997453,0.75
525.5282581475788,0.751
344.8926261462515,0.752
-242.8926261462475,0.753
-426.52825814758035,0.754
48.000000000020584,0.755
519.5282581475755,0.756
333.8926261462142,0.757
-257.8926261462388,0.758
-443.5282581475661,0.759
30.000000000009805,0.76
504.5282581475721,0.761
320.89262614622294,0.762
-268.8926261462301,0.763
-449.5282581475694,0.764
29.999999999999027,0.765
508.52825814758637,0.766
331.89262614623163,0.767
-251.89262614626733,0.768
-430.5282581475727,0.769
47.99999999998825,0.77
524.5282581475831,0.771
345.89262614624033,0.772
-242.89262614625858,0.773
-425.528258147576,0.774
47.00000000003431,0.775
519.5282581475797,0.776
334.8926261462031,0.777
-257.8926261462499,0.778
-443.5282581475794,0.779
31.00000000002353,0.78
505.52825814757637,0.781
322.8926261462118,0.782
-265.8926261462412,0.783
-447.52825814756517,0.784
31.000000000012747,0.785
509.5282581475906,0.786
334.89262614622055,0.787
-249.89262614627842,0.788
-429.5282581475685,0.789
48.00000000000197,0.79
525.5282581475873,0.791
344.89262614622925,0.792
-243.89262614626972,0.793
-424.5282581475718,0.794
49.00000000004803,0.795
521.528258147584,0.796
336.892626146192,0.797
-255.89262614626097,0.798
-441.5282581475752,0.799
32.00000000003725,0.8
505.5282581475806,0.801
323.8926261462007,0.802
-264.89262614625227,0.803
-446.5282581475609,0.804
30.000000000026468,0.805
510.52825814759484,0.806
333.8926261462094,0.807
-250.89262614624357,0.808
-429.5282581475642,0.809
49.00000000001569,0.81
525.5282581475915,0.811
345.89262614621816,0.812
-241.8926261462808,0.8130000000000001
-424.52825814756756,0.8140000000000001
48.00000000006175,0.8150000000000001
520.5282581475882,0.8160000000000001
336.8926261462269,0.8170000000000001
-255.89262614622606,0.8180000000000001
-439.52825814755334,0.8190000000000001
34.00000000005097,0.8200000000000001
508.5282581475849,0.8210000000000001
325.8926261462356,0.8220000000000001
-262.89262614630934,0.8230000000000001
-444.5282581475567,0.8240000000000001
33.00000000004019,0.8250000000000001
513.5282581475815,0.8260000000000001
336.89262614624437,0.8270000000000001
-247.89262614630064,0.8280000000000001
-426.52825814756,0.8290000000000001
51.00000000002941,0.8300000000000001
529.5282581475782,0.8310000000000001
347.8926261461611,0.8320000000000001
-240.89262614619992,0.833
-422.5282581475985,0.834
52.00000000001863,0.835
525.5282581475749,0.836
339.89262614626176,0.837
-251.89262614619122,0.838
-437.52825814756665,0.839
36.000000000007844,0.84
511.52825814757153,0.841
327.89262614627046,0.842
-261.8926261461825,0.843
-443.52825814757,0.844
34.999999999997065,0.845
515.5282581475682,0.846
338.8926261462792,0.847
-244.89262614626574,0.848
-423.5282581475733,0.849
53.99999999998629,0.85
532.5282581475649,0.851
352.8926261462879,0.852
-234.89262614625704,0.853
-416.52825814757665,0.854
55.99999999997551,0.855
529.5282581475615,0.856
342.8926261462047,0.857
-248.8926261462483,0.858
-432.52825814758,0.859
40.99999999996473,0.86
515.5282581475582,0.861
331.89262614621344,0.862
-256.8926261462396,0.863
-438.5282581475833,0.864
40.99999999995394,0.865
520.5282581475899,0.866
342.89262614622214,0.867
-240.89262614623084,0.868
-420.52825814758666,0.869
58.00000000005685,0.87
534.5282581475867,0.871
355.89262614623084,0.872
-231.89262614622214,0.873
-414.52825814758995,0.874
61.00000000004607,0.875
532.5282581475833,0.876
346.8926261462396,0.877
-244.89262614621344,0.878
-429.5282581475582,0.879
44.00000000003529,0.88
519.52825814758,0.881
335.8926261462483,0.882
-251.8926261462047,0.883
-434.5282581475615,0.884
45.00000000002451,0.885
524.5282581475767,0.886
348.892626146257,0.887
-235.89262614628797,0.888
-413.5282581475648,0.889
65.00000000001373,0.89
542.5282581475733,0.891
361.8926261462657,0.892
-226.8926261462792,0.893
-408.5282581475682,0.894
65.00000000000294,0.895
537.52825814757,0.896
350.8926261461825,0.897
-242.89262614627046,0.898
-427.5282581475715,0.899
45.99999999999217,0.9
521.5282581475667,0.901
337.8926261461912,0.902
-251.89262614626176,0.903
-432.52825814757483,0.904
46.999999999981384,0.905
525.5282581475985,0.906
348.8926261461999,0.907
-234.89262614625306,0.908
-413.52825814757813,0.909
62.999999999970605,0.91
541.5282581475951,0.911
361.89262614620867,0.912
-224.89262614624437,0.913
-407.5282581475815,0.914
66.00000000007351,0.915
537.5282581475918,0.916
351.89262614621737,0.917
-239.8926261462356,0.918
-424.52825814758484,0.919
50.000000000062734,0.92
525.5282581475885,0.921
342.89262614622606,0.922
-246.89262614622692,0.923
-426.52825814755306,0.924
52.00000000005195,0.925
531.5282581475851,0.926
353.8926261462348,0.927
-229.89262614621822,0.928
-407.5282581475564,0.929
69.00000000004117,0.93
545.5282581475818,0.931
366.8926261462435,0.932
-219.89262614630138,0.933
-403.5282581475597,0.934
70.00000000003038,0.935
541.5282581475785,0.936
355.8926261461603,0.937
-236.89262614629268,0.9380000000000001
-421.52825814756306,0.9390000000000001
53.00000000001961,0.9400000000000001
525.5282581475751,0.9410000000000001
342.892626146169,0.9420000000000001
-246.892626146284,0.9430000000000001
-428.52825814756636,0.9440000000000001
51.00000000000883,0.9450000000000001
529.528258147607,0.9460000000000001
354.89262614617775,0.9470000000000001
-229.89262614627523,0.9480000000000001
-408.5282581475697,0.9490000000000001
69.99999999999805,0.9500000000000001
546.5282581476037,0.9510000000000001
366.89262614618644,0.9520000000000001
-220.89262614626654,0.9530000000000001
-403.52825814757307,0.9540000000000001
70.00000000010095,0.9550000000000001
542.5282581476004,0.9560000000000001
355.89262614619514,0.9570000000000001
-238.89262614625784,0.9580000000000001
-421.52825814757637,0.9590000000000001
52.99999999997649,0.96
527.5282581475618,0.961
344.89262614629587,0.962
-245.89262614624909,0.963
-425.5282581475797,0.964
52.99999999996571,0.965
532.5282581475585,0.966
355.8926261462126,0.967
-230.8926261462404,0.968
-406.528258147583,0.969
70.99999999995492,0.97
549.5282581475903,0.971
367.89262614622135,0.972
-219.8926261462317,0.973
-403.52825814758637,0.974
68.99999999994415,0.975
540.5282581475869,0.976
355.8926261462301,0.977
-237.89262614622294,0.978
-422.5282581475897,0.979
53.00000000004705,0.98
526.5282581475836,0.981
343.8926261462388,0.982
-245.89262614621418,0.983
-426.528258147593,0.984
51.00000000003627,0.985
530.5282581475803,0.986
353.8926261462475,0.987
-229.8926261462055,0.988
-408.52825814756125,0.989
69.0000000000255,0.99
548.5282581475769,0.991
368.89262614625625,0.992
-219.8926261461968,0.993
-402.52825814756454,0.994
71.00000000001471,0.995
540.5282581475736,0.996
356.89262614626494,0.997
-236.89262614628,0.998
-421.5282581475679,0.999
54.00000000000393,1.0
528.5282581476055,1.0010000000000001
344.89262614627364,1.002
-243.8926261462713,1.0030000000000001
-425.5282581475712,1.004
53.00000000010684,1.0050000000000001
532.5282581475669,1.006
355.89262614619037,1.0070000000000001
-228.89262614626256,1.008
-407.5282581475394,1.0090000000000001
69.99999999998236,1.01
547.5282581475988,1.0110000000000001
366.8926261461992,1.012
-220.89262614634583,1.0130000000000001
-404.5282581475779,1.014
70.00000000008528,1.0150000000000001
541.5282581475954,1.016
354.8926261462079,1.0170000000000001
-236.8926261462451,1.018
-421.52825814754607,1.0190000000000001
52.99999999996081,1.02
526.5282581475922,1.0210000000000001
342.89262614621657,1.022
-244.89262614632838,1.0230000000000001
-426.52825814758455,1.024
54.99999999995003,1.025
536.5282581475888,1.026
359.8926261463173,1.027
-223.8926261462277,1.028
-402.52825814758785,1.029
77.00000000005294,1.03
554.5282581475503,1.031
373.892626146234,1.032
-213.89262614621896,1.033
-394.5282581475561,1.034
77.99999999992846,1.035
550.5282581475822,1.036
364.8926261462427,1.037
-226.89262614630223,1.038
-410.52825814759456,1.039
64.00000000003138,1.04
537.5282581475788,1.041
354.8926261462515,1.042
-233.89262614620156,1.043
-415.5282581475627,1.044
62.999999999906905,1.045
541.5282581475755,1.046
364.89262614626017,1.047
-218.89262614628473,1.048
-397.5282581476012,1.049
82.0000000000098,1.05
557.5282581475722,1.051
378.89262614617695,1.052
-210.89262614618406,1.053
-394.5282581475694,1.054
77.99999999999903,1.055
548.528258147604,1.056
362.8926261462776,1.057
-228.89262614626733,1.058
-414.5282581475727,1.059
57.99999999998825,1.06
530.5282581475655,1.061
346.8926261461944,1.062
-240.8926261461666,1.063
-420.528258147576,1.064
57.99999999997747,1.065
538.5282581475972,1.066
359.8926261462951,1.067
-223.89262614624988,1.068
-402.5282581475794,1.069
76.00000000008038,1.07
551.5282581475587,1.071
370.8926261462118,1.072
-217.89262614624118,1.073
-400.52825814754755,1.074
72.9999999999559,1.075
544.5282581475906,1.076
356.89262614622055,1.077
-235.8926261462325,1.078
-420.52825814758603,1.079
55.00000000005881,1.08
528.5282581475873,1.081
345.89262614622925,1.082
-243.89262614622373,1.083
-425.52825814755425,1.084
52.999999999934346,1.085
532.528258147584,1.086
356.892626146238,1.087
-227.89262614630695,1.088
-406.5282581475927,1.089
72.00000000003725,1.09
548.5282581475806,1.091
368.8926261461547,1.092
-218.89262614620628,1.093
-401.5282581475609,1.094
73.00000000002647,1.095
545.5282581475773,1.096
359.89262614625545,1.097
-232.8926261462895,1.098
-418.5282581475642,1.099
57.00000000001569,1.1
531.528258147574,1.101
348.8926261461722,1.102
-239.89262614618883,1.103
-422.52825814756756,1.104
58.00000000000491,1.105
537.5282581476058,1.106
360.89262614627285,1.107
-223.8926261462721,1.108
-401.5282581475709,1.109
77.00000000010782,1.11
554.5282581475673,1.111
372.8926261461896,1.112
-215.89262614626335,1.113
-399.52825814753913,1.114
74.99999999998334,1.115
547.5282581475991,1.116
361.8926261461983,1.117
-230.89262614625466,1.118
-416.52825814757756,1.119
57.00000000008625,1.12
532.5282581475606,1.121
349.892626146207,1.122
-239.89262614624596,1.123
-420.5282581475458,1.124
60.99999999996179,1.125
539.5282581475924,1.1260000000000001
360.89262614621583,1.127
-222.89262614632918,1.1280000000000001
-400.52825814758427,1.129
78.00000000006469,1.1300000000000001
554.5282581475891,1.131
373.89262614613256,1.1320000000000001
-214.89262614622845,1.133
-398.52825814755244,1.1340000000000001
76.00000000005392,1.135
548.5282581475858,1.1360000000000001
361.8926261462332,1.137
-230.89262614631173,1.1380000000000001
-414.5282581475558,1.139
60.00000000004313,1.1400000000000001
535.5282581475824,1.141
352.89262614614995,1.1420000000000001
-236.89262614621106,1.143
-418.5282581475591,1.1440000000000001
61.00000000003235,1.145
540.5282581476142,1.1460000000000001
363.8926261462507,1.147
-219.89262614629428,1.1480000000000001
-398.52825814756244,1.149
79.00000000013526,1.1500000000000001
555.5282581475758,1.151
373.8926261461674,1.1520000000000001
-215.89262614628558,1.153
-398.5282581476009,1.154
74.00000000001079,1.155
545.5282581475724,1.156
358.8926261461761,1.157
-233.8926261461849,1.158
-419.5282581475691,1.159
55.00000000000001,1.16
525.5282581475691,1.161
339.8926261462768,1.162
-251.89262614626813,1.163
-438.5282581476076,1.164
36.99999999998923,1.165
511.5282581475658,1.166
329.8926261461936,1.167
-258.89262614616746,1.168
-441.52825814757574,1.169
33.99999999997845,1.17
511.52825814759757,1.171
329.8926261462943,1.172
-257.8926261462507,1.173
-437.5282581475791,1.174
39.00000000008136,1.175
515.5282581475591,1.176
332.89262614621106,1.177
-255.89262614624198,1.178
-436.52825814758245,1.179
42.999999999956884,1.18
518.5282581475909,1.181
339.89262614621975,1.182
-245.89262614623323,1.183
-418.52825814758575,1.184
72.0000000000598,1.185
565.5282581475524,1.186
410.89262614622845,1.187
-144.89262614622453,1.188
-292.52825814755397,1.189
219.9999999999353,1.19
729.5282581475842,1.191
579.8926261462373,1.192
18.107373853692195,1.193
-142.5282581475924,1.194
353.00000000003826,1.195
841.5282581475809,1.196
671.8926261462459,1.197
90.10737385379292,1.198
-84.52825814756062,1.199
400.00000000002746,1.2
882.5282581475776,1.201
709.8926261462545,1.202
130.1073738537097,1.203
-44.528258147599104,1.204
439.00000000001666,1.205
918.5282581475742,1.206
736.8926261461713,1.207
142.10737385381037,1.208
-49.52825814756727,1.209
408.0000000000059,1.21
860.528258147606,1.211
648.892626146272,1.212
23.107373853727154,1.213
-196.52825814757063,1.214
238.0000000001088,1.215
675.5282581475676,1.216
454.89262614618883,1.217
-165.89262614626415,1.218
-371.5282581475739,1.219
88.99999999998433,1.22
554.5282581475993,1.221
363.8926261462895,1.222
-228.89262614625545,1.223
-414.5282581475773,1.224
61.00000000008723,1.225
538.528258147561,1.226
358.8926261462063,1.227
-226.89262614624676,1.228
-408.52825814754544,1.229
68.99999999996277,1.23
543.5282581475926,1.231
359.892626146215,1.232
-229.89262614632997,1.233
-415.5282581475839,1.234
56.000000000065675,1.235
527.5282581475894,1.236
340.8926261462237,1.237
-252.8926261462293,1.238
-439.5282581475521,1.239
33.0000000000549,1.24
506.52825814758603,1.241
321.8926261462325,1.242
-267.8926261463125,1.243
-449.5282581475906,1.244
30.000000000044114,1.245
509.52825814758273,1.246
330.8926261461492,1.247
-253.8926261462118,1.248
-433.5282581475588,1.249
42.00000000003333,1.25
520.5282581476145,1.2510000000000001
338.8926261462499,1.252
-250.89262614629507,1.2530000000000001
-433.5282581475621,1.254
40.00000000002255,1.2550000000000001
510.528258147576,1.256
324.8926261461666,1.2570000000000001
-266.8926261462864,1.258
-451.52825814756545,1.2590000000000001
23.00000000001177,1.26
496.52825814760786,1.2610000000000001
312.89262614626733,1.262
-274.8926261462776,1.2630000000000001
-454.52825814756875,1.264
24.000000000114678,1.2650000000000001
504.5282581475694,1.266
326.89262614618406,1.2670000000000001
-257.8926261462689,1.268
-435.528258147537,1.2690000000000001
42.99999999999021,1.27
518.5282581476013,1.2710000000000001
337.89262614619275,1.272
-250.8926261463522,1.2730000000000001
-432.52825814757546,1.274
40.00000000009312,1.2750000000000001
511.52825814759785,1.276
324.8926261462015,1.2770000000000001
-265.8926261462515,1.278
-448.5282581475436,1.2790000000000001
24.999999999968647,1.28
500.52825814755937,1.281
316.89262614621026,1.282
-272.8926261462428,1.283
-454.5282581475821,1.284
25.99999999995787,1.285
505.5282581475912,1.286
327.89262614631093,1.287
-255.89262614623402,1.288
-434.5282581475854,1.289
45.00000000006077,1.29
521.5282581475527,1.291
340.8926261462277,1.292
-246.89262614622533,1.293
-429.52825814755363,1.294
45.99999999993631,1.295
516.5282581475846,1.296
330.8926261462364,1.297
-260.89262614621657,1.298
-443.5282581475921,1.299
31.000000000039215,1.3
505.5282581475812,1.301
323.8926261462451,1.302
-264.8926261462079,1.303
-445.52825814756034,1.304
32.99999999991475,1.305
512.5282581475778,1.306
335.89262614625386,1.307
-247.89262614629115,1.308
-425.52825814759876,1.309
54.00000000001765,1.31
531.5282581475745,1.311
349.8926261461706,1.312
-236.89262614619042,1.313
-419.528258147567,1.314
54.00000000000687,1.315
524.5282581476064,1.316
338.89262614627125,1.317
-252.8926261462737,1.318
-436.52825814757034,1.319
37.99999999999609,1.32
511.5282581475679,1.321
328.89262614618804,1.322
-259.892626146173,1.323
-438.52825814757364,1.324
40.99999999998531,1.325
521.5282581475997,1.326
343.89262614628876,1.327
-238.89262614625625,1.328
-416.528258147577,1.329
61.000000000088214,1.33
540.5282581475612,1.331
359.8926261462055,1.332
-229.8926261462475,1.333
-414.52825814754516,1.334
59.99999999996375,1.335
530.5282581475931,1.336
344.8926261462142,1.337
-245.8926261462388,1.338
-429.52825814758364,1.339
47.000000000066656,1.34
520.5282581475897,1.341
336.89262614622294,1.342
-248.8926261462301,1.343
-430.52825814755187,1.344
48.99999999994219,1.345
528.5282581475864,1.346
351.89262614623163,1.347
-232.89262614631332,1.348
-409.5282581475903,1.349
70.00000000004509,1.35
547.5282581475831,1.351
366.89262614614836,1.352
-221.89262614621265,1.353
-403.5282581475585,1.354
69.00000000003432,1.355
542.5282581475797,1.356
356.8926261462491,1.357
-234.89262614629587,1.358
-419.5282581475618,1.359
57.00000000002353,1.36
532.5282581475764,1.361
348.89262614616587,1.362
-238.89262614619514,1.363
-418.52825814756517,1.364
62.000000000012754,1.365
541.5282581476082,1.366
363.89262614626654,1.367
-219.89262614627842,1.368
-398.5282581475685,1.369
81.00000000011566,1.37
556.5282581475697,1.371
376.89262614618326,1.372
-211.89262614626972,1.373
-393.5282581475367,1.374
78.99999999999119,1.375
551.5282581476015,1.3760000000000001
366.892626146192,1.377
-224.89262614626097,1.3780000000000001
-408.5282581475752,1.379
68.0000000000941,1.3800000000000001
541.5282581475631,1.381
357.8926261462007,1.3820000000000001
-230.89262614625227,1.383
-409.52825814754334,1.3840000000000001
70.99999999996963,1.385
550.5282581475949,1.3860000000000001
373.8926261462094,1.387
-209.89262614633554,1.3880000000000001
-386.5282581475818,1.389
93.00000000007253,1.3900000000000001
568.5282581475915,1.391
387.8926261461262,1.3920000000000001
-199.89262614623487,1.393
-383.52825814755,1.3940000000000001
89.00000000006176,1.395
563.5282581475882,1.3960000000000001
378.8926261462269,1.397
-212.89262614631804,1.3980000000000001
-397.5282581475885,1.399
79.00000000005097,1.4000000000000001
552.5282581475849,1.401
367.89262614614364,1.4020000000000001
-217.89262614621737,1.403
-397.5282581475567,1.4040000000000001
83.00000000004019,1.405
563.5282581476166,1.4060000000000001
386.89262614624437,1.407
-195.89262614620867,1.408
-372.52825814756,1.409
104.99999999991573,1.41
585.5282581475782,1.411
404.89262614625306,1.412
-184.8926261462919,1.413
-366.5282581475985,1.414
108.00000000001863,1.415
577.5282581475749,1.416
393.8926261461698,1.417
-198.89262614619122,1.418
-382.52825814756665,1.419
91.00000000000786,1.42
566.5282581475715,1.421
384.89262614627046,1.422
-202.8926261462745,1.423
-383.52825814760513,1.424
96.99999999999707,1.425
576.5282581475683,1.426
399.89262614618724,1.427
-182.89262614617377,1.428
-361.5282581475733,1.429
117.99999999998629,1.43
595.5282581475999,1.431
414.8926261462879,1.432
-172.89262614625704,1.433
-356.52825814757665,1.434
115.0000000000892,1.435
588.5282581475615,1.436
401.8926261462047,1.437
-189.8926261462483,1.438
-374.52825814758,1.439
97.99999999996473,1.44
574.5282581475933,1.441
390.89262614621344,1.442
-196.8926261462396,1.443
-376.5282581475833,1.444
104.00000000006763,1.445
582.5282581475549,1.446
406.89262614622214,1.447
-178.89262614623084,1.448
-357.5282581475515,1.449
119.99999999994317,1.45
598.5282581475867,1.451
417.89262614623084,1.452
-169.89262614631411,1.453
-354.52825814758995,1.454
120.00000000004607,1.455
590.5282581475833,1.456
403.8926261462396,1.457
-189.89262614621344,1.458
-374.5282581475582,1.459
100.0000000000353,1.46
573.52825814758,1.461
389.8926261462483,1.462
-200.89262614629666,1.463
-381.52825814759666,1.464
98.00000000002451,1.465
576.5282581475767,1.466
397.892626146165,1.467
-187.892626146196,1.468
-367.5282581475648,1.469
110.00000000001373,1.47
584.5282581476085,1.471
400.8926261462657,1.472
-189.8926261462792,1.473
-374.5282581475682,1.474
97.00000000011664,1.475
566.52825814757,1.476
377.8926261461825,1.477
-215.89262614627046,1.478
-402.5282581475715,1.479
69.99999999999217,1.48
542.5282581476017,1.481
357.8926261462832,1.482
-232.89262614626176,1.483
-414.52825814757483,1.484
63.00000000009508,1.485
539.5282581475633,1.486
361.8926261461999,1.487
-223.89262614625306,1.488
-404.528258147543,1.489
73.99999999997061,1.49
547.5282581475951,1.491
364.89262614620867,1.492
-225.89262614633634,1.493
-411.5282581475815,1.494
61.00000000007352,1.495
530.5282581475918,1.496
340.89262614621737,1.497
-250.8926261462356,1.498
-437.5282581475497,1.499
35.99999999994905,1.5
509.5282581475885,1.5010000000000001
325.89262614622606,1.502
-263.8926261463189,1.5030000000000001
-445.52825814758813,1.504
33.000000000051955,1.5050000000000001
511.5282581475851,1.506
332.8926261461428,1.5070000000000001
-251.89262614621822,1.508
-431.5282581475564,1.5090000000000001
45.000000000041176,1.51
520.528258147617,1.5110000000000001
336.8926261462435,1.512
-251.89262614630138,1.5130000000000001
-436.5282581475597,1.514
35.0000000000304,1.5150000000000001
505.52825814757847,1.516
317.8926261461603,1.5170000000000001
-274.8926261462927,1.518
-458.52825814756306,1.5190000000000001
15.000000000019615,1.52
487.5282581476103,1.5210000000000001
303.89262614626097,1.522
-283.892626146284,1.5230000000000001
-463.52825814756636,1.524
16.00000000012252,1.5250000000000001
495.5282581475718,1.526
317.89262614617775,1.5270000000000001
-267.89262614627523,1.528
-446.5282581475346,1.5290000000000001
28.999999999998053,1.53
507.52825814760365,1.5310000000000001
325.89262614618644,1.532
-263.8926261463585,1.5330000000000001
-446.52825814757307,1.534
27.000000000100957,1.5350000000000001
496.5282581476003,1.536
311.8926261462871,1.537
-279.89262614625784,1.538
-463.52825814757637,1.539
9.999999999976492,1.54
485.5282581475618,1.541
301.8926261462039,1.542
-286.8926261462491,1.543
-465.5282581475797,1.544
13.999999999965711,1.545
493.52825814759365,1.546
316.89262614630456,1.547
-266.8926261462404,1.548
-446.528258147583,1.549
33.00000000006862,1.55
510.52825814755516,1.551
328.89262614622135,1.552
-259.8926261462317,1.553
-443.52825814755124,1.554
29.99999999994415,1.555
500.528258147587,1.556
314.8926261462301,1.557
-277.89262614622294,1.558
-459.5282581475897,1.559
15.000000000047056,1.56
489.52825814758364,1.561
306.8926261462388,1.562
-281.8926261462142,1.563
-461.5282581475579,1.564
17.99999999992259,1.565
498.52825814758035,1.566
318.8926261462475,1.567
-263.89262614629746,1.568
-441.5282581475964,1.569
39.000000000025494,1.57
515.5282581475769,1.571
333.8926261461642,1.572
-254.8926261461968,1.573
-436.52825814756454,1.574
36.000000000014715,1.575
507.52825814760877,1.576
320.89262614626494,1.577
-269.89262614628,1.578
-453.5282581475679,1.579
21.000000000003933,1.58
494.52825814757034,1.581
311.89262614618167,1.582
-275.89262614617934,1.583
-456.5282581475712,1.584
23.999999999993154,1.585
504.5282581476021,1.586
328.89262614628234,1.587
-255.89262614626261,1.588
-432.52825814757455,1.589
44.00000000009606,1.59
521.5282581475637,1.591
338.8926261461992,1.592
-250.89262614625386,1.593
-433.5282581475427,1.594
38.99999999997159,1.595
511.52825814759547,1.596
324.8926261462079,1.597
-266.8926261462451,1.598
-450.5282581475812,1.599
24.000000000074497,1.6
499.52825814759217,1.601
315.89262614621657,1.602
-270.8926261462364,1.603
-450.5282581475494,1.604
29.99999999995003,1.605
509.5282581475888,1.606
330.8926261462253,1.607
-250.89262614631969,1.608
-428.52825814758785,1.609
50.000000000052935,1.61
527.5282581475853,1.611
344.89262614614205,1.612
-243.89262614621896,1.613
-426.5282581475561,1.614
45.00000000004216,1.615
517.5282581475822,1.616
331.8926261462427,1.617
-260.89262614630223,1.618
-445.52825814755937,1.619
29.000000000031374,1.62
504.52825814757875,1.621
322.89262614615944,1.622
-264.89262614620156,1.623
-445.5282581475627,1.624
35.0000000000206,1.625
514.5282581476106,1.6260000000000001
335.89262614626017,1.627
-247.89262614628473,1.6280000000000001
-426.5282581475661,1.629
53.0000000001235,1.6300000000000001
529.5282581476072,1.631
346.89262614617695,1.6320000000000001
-239.89262614627603,1.633
-424.5282581475694,1.6340000000000001
48.999999999999034,1.635
518.5282581475687,1.6360000000000001
332.8926261462776,1.637
-258.8926261463593,1.6380000000000001
-442.5282581475376,1.639
31.00000000010194,1.6400000000000001
506.5282581476006,1.641
323.8926261461944,1.6420000000000001
-262.8926261462586,1.643
-442.528258147576,1.6440000000000001
36.999999999977476,1.645
517.5282581476324,1.6460000000000001
337.8926261462951,1.647
-245.89262614634185,1.6480000000000001
-422.52825814754425,1.649
57.00000000008038,1.6500000000000001
533.528258147594,1.651
351.8926261462118,1.6520000000000001
-237.89262614624118,1.653
-420.52825814758273,1.6540000000000001
51.99999999995591,1.655
522.5282581476257,1.6560000000000001
335.8926261461285,1.657
-256.89262614632446,1.6580000000000001
-441.5282581475509,1.659
33.00000000005882,1.6600000000000001
506.5282581475873,1.661
323.89262614622925,1.6620000000000001
-263.89262614622373,1.663
-442.52825814751907,1.6640000000000001
37.99999999993435,1.665
517.5282581475487,1.666
340.892626146146,1.667
-244.89262614612306,1.668
-423.52825814755755,1.669
54.000000000037254,1.67
530.5282581475806,1.671
349.8926261462467,1.672
-239.89262614620628,1.673
-421.52825814759603,1.674
49.00000000014016,1.675
519.5282581475421,1.676
332.8926261461635,1.677
-258.8926261462895,1.678
-441.5282581475642,1.679
34.000000000015696,1.68
508.5282581475739,1.681
325.89262614626415,1.682
-261.89262614618883,1.683
-441.5282581476027,1.684
40.000000000118604,1.685
519.5282581475354,1.686
341.8926261461809,1.687
-240.8926261462721,1.688
-419.5282581475709,1.689
56.99999999999413,1.69
534.5282581475673,1.691
354.8926261462816,1.692
-234.89262614635538,1.693
-420.52825814760934,1.694
54.00000000009704,1.695
524.5282581475991,1.696
339.8926261461983,1.697
-251.89262614625466,1.698
-435.52825814757756,1.699
37.99999999997257,1.7
511.5282581475606,1.701
329.892626146299,1.702
-257.89262614633793,1.703
-437.528258147616,1.704
42.00000000007548,1.705
523.5282581475924,1.706
345.8926261462158,1.707
-239.89262614623726,1.708
-417.5282581475842,1.709
59.999999999951015,1.71
537.5282581476242,1.711
355.89262614631645,1.712
-233.89262614632042,1.713
-418.52825814755244,1.714
54.000000000053916,1.715
525.5282581475858,1.716
339.8926261462332,1.717
-251.89262614621975,1.718
-435.5282581475909,1.719
38.99999999992945,1.72
515.5282581476176,1.721
331.89262614633395,1.722
-255.89262614630303,1.723
-435.5282581475591,1.724
44.00000000003236,1.725
524.5282581475791,1.726
347.8926261462507,1.727
-237.8926261462023,1.728
-415.5282581475273,1.729
61.99999999990789,1.73
539.5282581476109,1.731
356.8926261461674,1.732
-230.89262614628558,1.733
-414.5282581475658,1.734
57.00000000001079,1.735
527.5282581475724,1.736
340.89262614626807,1.737
-250.8926261461849,1.738
-435.52825814753396,1.739
40.0000000001137,1.74
513.5282581476042,1.741
331.89262614618485,1.742
-255.89262614626813,1.743
-434.52825814757244,1.744
43.999999999989235,1.745
524.5282581475658,1.746
346.89262614610163,1.747
-238.89262614616746,1.748
-417.5282581475406,1.749
62.00000000009214,1.75
537.5282581475976,1.7510000000000001
356.8926261462023,1.752
-232.89262614625068,1.7530000000000001
-416.5282581475791,1.754
56.99999999996767,1.7550000000000001
527.5282581475591,1.756
341.892626146119,1.7570000000000001
-250.89262614633395,1.758
-432.52825814754726,1.7590000000000001
42.00000000007058,1.76
517.5282581475909,1.7610000000000001
333.89262614621975,1.762
-252.89262614623323,1.7630000000000001
-431.52825814758575,1.764
48.000000000173486,1.7650000000000001
527.5282581475524,1.766
350.8926261461365,1.7670000000000001
-232.8926261463165,1.768
-412.52825814755397,1.7690000000000001
66.00000000004901,1.77
542.5282581475842,1.7710000000000001
360.8926261462372,1.772
-227.89262614639978,1.7730000000000001
-411.5282581475924,1.774
61.00000000015192,1.7750000000000001
530.528258147616,1.776
343.89262614615393,1.7770000000000001
-247.89262614629905,1.778
-431.5282581475606,1.7790000000000001
43.000000000027455,1.78
517.5282581475776,1.7810000000000001
333.8926261462546,1.782
-252.89262614638227,1.7830000000000001
-431.5282581475991,1.784
47.00000000013036,1.7850000000000001
528.5282581476093,1.786
349.8926261461714,1.7870000000000001
-231.8926261462816,1.788
-409.52825814756727,1.7890000000000001
68.0000000000059,1.79
544.5282581476412,1.7910000000000001
362.8926261462721,1.792
-227.89262614618087,1.793
-411.52825814753544,1.794
61.99999999988143,1.795
531.5282581476026,1.796
345.89262614618883,1.797
-245.89262614626415,1.798
-429.5282581475739,1.799
43.99999999998433,1.8
519.5282581475642,1.801
335.8926261462895,1.802
-250.89262614616348,1.803
-429.52825814754215,1.804
50.99999999985987,1.805
531.528258147596,1.806
354.8926261462063,1.807
-230.89262614624676,1.808
-408.5282581475806,1.809
70.99999999996277,1.81
545.5282581475576,1.811
363.892626146123,1.812
-224.89262614614603,1.813
-410.5282581475488,1.814
64.00000000006568,1.815
534.5282581475894,1.816
347.8926261462237,1.817
-243.8926261462293,1.818
-427.5282581475873,1.819
47.99999999994121,1.82
521.528258147551,1.821
337.89262614614046,1.822
-249.89262614612858,1.823
-427.52825814755545,1.824
52.00000000004412,1.825
532.5282581475827,1.826
354.8926261462411,1.827
-229.8926261462118,1.828
-408.52825814759393,1.829
70.00000000014703,1.83
546.5282581475442,1.831
363.8926261461579,1.832
-223.89262614629507,1.833
-407.5282581475621,1.834
64.00000000002255,1.835
536.528258147576,1.836
348.8926261462586,1.837
-241.8926261461944,1.838
-423.5282581476006,1.839
50.00000000012546,1.84
525.5282581476079,1.841
341.89262614617536,1.842
-243.89262614627762,1.843
-422.52825814756875,1.844
58.000000000000995,1.845
537.5282581475694,1.846
360.89262614627603,1.847
-223.8926261463609,1.848
-402.52825814760723,1.849
75.0000000001039,1.85
551.5282581476013,1.851
368.89262614619275,1.852
-220.89262614626023,1.853
-404.52825814757546,1.854
68.99999999997944,1.855
539.5282581475627,1.856
351.8926261462935,1.857
-240.8926261463435,1.858
-422.5282581475436,1.859
51.00000000008234,1.86
524.5282581475946,1.861
342.8926261462102,1.862
-243.89262614624278,1.863
-421.5282581475821,1.864
58.99999999995787,1.865
538.5282581476263,1.866
360.8926261463109,1.867
-222.892626146326,1.868
-400.5282581475503,1.869
75.00000000006078,1.87
552.5282581475878,1.871
369.8926261462277,1.872
-219.89262614622533,1.873
-402.52825814751856,1.874
68.9999999999363,1.875
541.5282581476197,1.8760000000000001
354.89262614614444,1.877
-236.89262614630854,1.8780000000000001
-421.5282581475569,1.879
54.00000000003922,1.8800000000000001
528.5282581475813,1.881
345.8926261462451,1.8820000000000001
-241.89262614620787,1.883
-419.5282581475252,1.8840000000000001
59.99999999991475,1.885
540.5282581476131,1.8860000000000001
362.89262614616183,1.887
-220.89262614629115,1.8880000000000001
-398.5282581475637,1.889
78.00000000001766,1.8900000000000001
555.5282581475745,1.891
372.89262614607856,1.8920000000000001
-217.89262614619042,1.893
-400.52825814753186,1.8940000000000001
72.00000000012056,1.895
542.5282581476064,1.8960000000000001
354.8926261461793,1.897
-236.8926261462737,1.8980000000000001
-418.52825814757034,1.899
54.9999999999961,1.9000000000000001
528.5282581475678,1.901
346.89262614609606,1.9020000000000001
-239.89262614617303,1.903
-415.5282581475385,1.9040000000000001
63.000000000099,1.905
544.5282581475997,1.9060000000000001
366.8926261461968,1.907
-217.89262614625625,1.9080000000000001
-394.528258147577,1.909
83.00000000020191,1.9100000000000001
559.5282581475612,1.911
376.8926261461135,1.9120000000000001
-211.89262614633947,1.913
-395.52825814754516,1.9140000000000001
76.00000000007743,1.915
545.5282581475931,1.9160000000000001
359.8926261462142,1.917
-232.8926261462388,1.9180000000000001
-417.52825814758364,1.919
57.999999999952976,1.92
533.5282581475545,1.921
351.8926261463149,1.922
-235.89262614632207,1.923
-413.52825814762207,1.924
66.00000000005588,1.925
545.5282581475864,1.926
366.89262614623163,1.927
-216.89262614622135,1.928
-394.5282581475903,1.929
81.99999999993142,1.93
559.5282581476182,1.931
376.8926261463323,1.932
-213.89262614630462,1.933
-397.5282581475585,1.934
75.00000000003432,1.935
546.5282581475797,1.936
358.8926261462491,1.937
-232.89262614620395,1.938
-416.52825814759694,1.939
55.99999999990985,1.94
530.5282581476115,1.941
347.89262614616587,1.942
-239.8926261462871,1.943
-416.52825814756517,1.944
63.000000000012754,1.945
543.5282581475731,1.946
365.89262614626654,1.947
-218.89262614618644,1.948
-396.52825814753334,1.949
79.99999999988829,1.95
556.5282581476049,1.951
372.89262614618326,1.952
-215.89262614626972,1.953
-399.5282581475718,1.954
70.99999999999119,1.955
541.5282581475664,1.956
354.892626146284,1.957
-237.892626146169,1.958
-420.52825814754004,1.959
54.000000000094104,1.96
528.5282581475982,1.961
346.8926261462007,1.962
-238.89262614625227,1.963
-415.52825814757847,1.964
62.99999999996963,1.965
543.5282581475597,1.966
366.89262614611744,1.967
-218.8926261461516,1.968
-396.5282581475467,1.969
81.00000000007255,1.97
557.5282581475915,1.971
374.89262614621816,1.972
-213.89262614623487,1.973
-397.5282581475851,1.974
74.00000000017545,1.975
546.5282581475531,1.976
359.8926261461349,1.977
-230.89262614631804,1.978
-412.52825814755334,1.979
61.00000000005098,1.98
536.5282581475849,1.981
354.89262614623556,1.982
-231.89262614621737,1.983
-408.5282581475918,1.984
71.00000000015389,1.985
551.5282581475465,1.986
373.89262614615234,1.987
-211.89262614630064,1.988
-389.52825814756,1.989
90.00000000002942,1.99
566.5282581475782,1.991
382.89262614625306,1.992
-205.89262614638392,1.993
-388.5282581475985,1.994
83.00000000013233,1.995
553.5282581476099,1.996
365.8926261461698,1.997
-225.8926261462832,1.998
-407.52825814756665,1.999
65.00000000000786,2.0
539.5282581475715,2.001
356.8926261460865,2.0020000000000002
-229.89262614636647,2.003
-406.52825814760513,2.004
72.99999999988339,2.005
553.5282581476033,2.0060000000000002
375.89262614618724,2.007
-208.89262614626574,2.008
-386.5282581475733,2.009
90.00000000021367,2.0100000000000002
565.5282581476351,2.011
381.8926261462879,2.012
-207.89262614616507,2.013
-392.5282581475415,2.0140000000000002
81.0000000000892,2.015
550.5282581475967,2.016
362.89262614620463,2.017
-227.89262614643224,2.0180000000000002
-409.52825814758,2.019
63.999999999964736,2.02
538.5282581475582,2.021
355.8926261461214,2.0220000000000002
-231.89262614633157,2.023
-409.5282581475482,2.024
68.99999999984027,2.025
549.5282581476603,2.0260000000000002
369.89262614622214,2.027
-214.89262614623084,2.028
-393.52825814758666,2.029
85.00000000017054,2.0300000000000002
560.5282581476217,2.031
375.89262614613887,2.032
-213.89262614613017,2.033
-397.5282581475548,2.0340000000000003
75.00000000004609,2.035
544.5282581475833,2.036
357.8926261462396,2.037
-233.8926261463974,2.0380000000000003
-416.52825814752305,2.039
58.99999999992161,2.04
533.5282581475449,2.041
350.8926261461563,2.0420000000000003
-236.89262614629666,2.043
-415.5282581475615,2.044
65.00000000002451,2.045
545.528258147647,2.0460000000000003
366.89262614607304,2.047
-217.892626146196,2.048
-396.52825814759996,2.049
80.99999999990006,2.05
557.5282581476085,2.051
374.8926261461737,2.052
-214.89262614627927,2.053
-398.52825814763844,2.054
73.00000000000296,2.055
543.52825814757,2.056
357.89262614627444,2.057
-233.89262614617854,2.058
-417.52825814753635,2.059
57.000000000105864,2.06
531.5282581476017,2.061
347.8926261463751,2.062
-239.89262614626176,2.063
-415.52825814757483,2.064
63.9999999999814,2.065
544.5282581475633,2.066
366.89262614610794,2.067
-216.89262614634504,2.068
-396.5282581476133,2.069
82.99999999985693,2.07
558.5282581475951,2.071
376.89262614620867,2.072
-212.89262614624437,2.073
-396.5282581475815,2.074
75.00000000018721,2.075
545.528258147627,2.076
359.89262614630934,2.077
-230.89262614614364,2.078
-413.5282581475497,2.079
60.00000000006274,2.08
532.5282581475885,2.081
350.89262614622606,2.082
-236.89262614641086,2.083
-416.52825814758813,2.084
63.999999999938275,2.085
543.52825814755,2.086
364.8926261461428,2.087
-219.8926261463102,2.088
-396.5282581475564,2.089
81.99999999981381,2.09
557.5282581475818,2.091
374.8926261462435,2.092
-213.89262614620947,2.093
-397.5282581475948,2.094
74.00000000014408,2.095
542.5282581476135,2.096
356.8926261461603,2.097
-235.8926261461088,2.098
-419.52825814756306,2.099
57.00000000001962,2.1
530.5282581475751,2.101
348.89262614626097,2.102
-238.89262614637596,2.103
-414.52825814753123,2.104
63.99999999989515,2.105
543.5282581475367,2.106
365.89262614617775,2.107
-217.89262614627523,2.108
-396.5282581475697,2.109
79.99999999999805,2.11
555.5282581476388,2.111
372.89262614609447,2.112
-216.89262614617456,2.113
-401.52825814760814,2.114
66.00000000010097,2.115
534.5282581476004,2.116
344.89262614619514,2.117
-250.89262614625784,2.118
-438.5282581475061,2.119
30.999999999976495,2.12
499.5282581475618,2.121
311.89262614629587,2.122
-278.8926261463411,2.123
-461.5282581475446,2.124
17.000000000079403,2.125
496.5282581475234,2.126
318.8926261460287,2.1270000000000002
-263.8926261462404,2.128
-439.528258147583,2.129
40.99999999995494,2.13
521.5282581476254,2.1310000000000002
339.8926261461294,2.132
-245.8926261463236,2.133
-429.5282581476215,2.134
44.00000000005784,2.1350000000000002
516.5282581475869,2.136
334.8926261462301,2.137
-244.89262614622294,2.138
-410.5282581475194,2.1390000000000002
91.00000000016075,2.14
595.5282581475485,2.141
445.8926261463307,2.142
-106.89262614630616,2.1430000000000002
-253.5282581475579,2.144
256.00000000003627,2.145
761.5282581475803,2.146
605.8926261460635,2.1470000000000002
40.10737385361057,2.148
-122.52825814759638,2.149
370.99999999991184,2.15
861.5282581476122,2.1510000000000002
694.8926261461643,2.152
121.10737385371124,2.153
-46.52825814756454,2.154
443.0000000002421,2.1550000000000002
929.5282581475736,2.156
756.892626146265,2.157
180.10737385381196,2.158
6.4717418524672325,2.1590000000000003
489.0000000001176,2.16
967.5282581476055,2.161
782.8926261461817,2.162
186.10737385354474,2.1630000000000003
-12.528258147571194,2.164
438.9999999999932,2.165
883.5282581475669,2.166
663.8926261460985,2.1670000000000003
37.10737385364541,2.168
-183.52825814753942,2.169
249.9999999998687,2.17
685.5282581475988,2.1710000000000003
466.8926261461991,2.172
-150.89262614625386,2.173
-354.5282581475779,2.174
103.00000000019897,2.1750000000000003
563.5282581476306,2.176
370.8926261461159,2.177
-224.8926261461532,2.178
-410.5282581476163,2.179
61.0000000000745,2.18
532.5282581475922,2.181
344.89262614621657,2.182
-243.8926261462364,2.183
-423.52825814751424,2.184
52.999999999950035,2.185
531.5282581475537,2.186
350.8926261463173,2.187
-234.89262614631969,2.188
-414.5282581475527,2.189
60.00000000005294,2.19
533.5282581475152,2.191
349.892626146234,2.192
-242.89262614621896,2.193
-427.5282581475912,2.194
40.99999999992848,2.195
510.52825814761724,2.196
323.89262614615075,2.197
-268.89262614630223,2.198
-454.5282581476297,2.199
19.00000000003138,2.2
492.52825814757875,2.201
308.8926261462515,2.202
-278.89262614620156,2.203
-457.5282581475276,2.204
21.000000000134285,2.205
501.5282581475403,2.206
323.89262614635214,2.207
-260.8926261462848,2.208
-441.5282581475661,2.209
38.00000000000982,2.21
513.5282581475722,2.211
329.892626146085,2.212
-258.892626146368,2.213
-441.5282581476045,2.214
27.99999999988535,2.215
499.52825814760394,2.216
311.89262614618565,2.217
-278.89262614626733,2.218
-461.5282581475727,2.219
12.000000000215632,2.22
486.52825814756545,2.221
304.8926261462864,2.222
-281.8926261461666,2.223
-458.5282581475409,2.224
21.000000000091166,2.225
501.5282581475972,2.226
323.89262614638704,2.227
-259.8926261464338,2.228
-437.5282581475794,2.229
39.9999999999667,2.23
516.5282581475587,2.231
333.8926261461198,2.232
-255.89262614633316,2.233
-439.52825814754755,2.234
29.99999999984223,2.235
500.5282581475906,2.236
314.89262614622055,2.237
-275.8926261462325,2.238
-458.52825814758603,2.239
16.00000000017251,2.24
489.5282581476224,2.241
306.8926261463212,2.242
-279.89262614613176,2.243
-456.52825814755425,2.244
22.000000000048043,2.245
502.5282581475839,2.246
324.89262614623794,2.247
-258.8926261463989,2.248
-435.5282581475225,2.249
40.999999999923574,2.25
517.5282581475454,2.251
334.8926261461547,2.2520000000000002
-254.89262614629826,2.253
-437.5282581475609,2.254
32.00000000002648,2.255
503.52825814764753,2.2560000000000002
317.89262614625545,2.257
-273.89262614619753,2.258
-455.52825814759933,2.259
18.000000000129386,2.2600000000000002
493.52825814760905,2.261
311.8926261461722,2.262
-274.8926261462808,2.263
-449.52825814749735,2.2640000000000002
29.00000000000492,2.265
508.5282581475706,2.266
332.89262614627285,2.267
-250.89262614636408,2.2680000000000002
-427.5282581475358,2.269
49.000000000107825,2.27
524.5282581475321,2.271
341.8926261461896,2.2720000000000002
-245.89262614626335,2.273
-429.5282581475742,2.274
40.99999999998336,2.275
512.5282581476342,2.2760000000000002
324.89262614610635,2.277
-264.89262614634663,2.278
-448.5282581476127,2.279
26.000000000086263,2.2800000000000002
500.52825814759575,2.281
318.892626146207,2.282
-267.89262614624596,2.283
-444.52825814751066,2.2840000000000003
36.00000000018917,2.285
515.5282581475573,2.286
337.89262614630775,2.287
-243.89262614632918,2.2880000000000003
-423.52825814754914,2.289
55.0000000000647,2.29
531.5282581475891,2.291
348.8926261460406,2.2920000000000003
-239.89262614622845,2.293
-421.5282581475875,2.294
48.999999999940236,2.295
519.5282581476208,2.2960000000000003
331.89262614614125,2.297
-256.8926261463117,2.298
-438.5282581475558,2.299
35.00000000027052,2.3000000000000003
509.52825814758245,2.301
328.892626146242,2.302
-256.89262614621106,2.303
-434.52825814752396,2.3040000000000003
46.000000000146045,2.305
526.5282581476142,2.306
349.89262614634265,2.307
-232.89262614611033,2.308
-408.52825814756244,2.309
67.00000000002159,2.31
542.5282581475758,2.311
360.8926261462594,2.312
-228.89262614637755,2.313
-412.52825814753066,2.314
57.99999999989711,2.315
527.5282581475374,2.316
341.8926261461761,2.317
-247.89262614627688,2.318
-430.5282581475691,2.319
44.00000000000002,2.32
518.5282581476395,2.321
336.8926261462768,2.322
-248.89262614617616,2.323
-426.5282581476076,2.324
53.00000000010293,2.325
533.5282581476009,2.326
355.8926261461936,2.327
-226.8926261460755,2.328
-403.5282581475055,2.329
74.99999999997846,2.33
550.5282581475624,2.331
369.8926261462942,2.332
-220.89262614634265,2.333
-405.52825814754397,2.334
68.00000000008137,2.335
538.528258147524,2.336
352.89262614621106,2.337
-237.89262614624198,2.338
-421.52825814758245,2.339
54.9999999999569,2.34
529.528258147626,2.341
347.8926261461278,2.342
-237.89262614614125,2.343
-414.5282581476209,2.344
67.0000000000598,2.345
548.5282581475876,2.346
371.89262614622845,2.347
-211.89262614622453,2.348
-389.5282581475188,2.349
89.00000000016271,2.35
564.5282581475492,2.351
383.8926261463292,2.352
-204.8926261463078,2.353
-388.52825814755727,2.354
83.00000000003824,2.355
554.5282581475809,2.356
368.89262614606196,2.357
-219.89262614620708,2.358
-402.52825814759575,2.359
72.99999999991377,2.36
547.5282581476127,2.361
366.8926261461626,2.362
-218.89262614629035,2.363
-396.5282581475639,2.364
86.00000000024406,2.365
566.5282581475742,2.366
389.8926261462633,2.367
-193.89262614618968,2.368
-371.52825814753214,2.369
107.00000000011958,2.37
584.528258147606,2.371
401.892626146364,2.372
-186.89262614627285,2.373
-371.5282581475706,2.374
101.99999999999513,2.375
572.5282581475676,2.376
384.89262614609686,2.3770000000000002
-203.89262614635612,2.378
-385.5282581475388,2.379
88.99999999987065,2.38
564.5282581475993,2.3810000000000002
381.89262614619753,2.382
-202.89262614625545,2.383
-379.5282581475773,2.384
101.00000000020093,2.3850000000000002
580.5282581476312,2.386
403.89262614629826,2.387
-178.89262614615473,2.388
-357.52825814754544,2.3890000000000002
120.00000000007647,2.39
594.5282581475926,2.391
412.892626146215,2.392
-173.892626146422,2.3930000000000002
-358.5282581475839,2.394
110.999999999952,2.395
581.5282581475543,2.396
395.8926261461317,2.3970000000000002
-194.89262614632128,2.398
-379.5282581475521,2.399
96.00000000005491,2.4
569.5282581476563,2.4010000000000002
388.89262614623243,2.402
-195.8926261462206,2.403
-372.5282581475906,2.404
108.00000000015781,2.4050000000000002
587.5282581476179,2.406
409.8926261461492,2.407
-173.89262614611988,2.408
-352.5282581475588,2.4090000000000003
125.00000000003334,2.41
600.5282581475794,2.411
416.8926261462499,2.412
-173.89262614638704,2.4130000000000003
-359.52825814752697,2.414
112.00000000013625,2.415
582.528258147541,2.416
395.8926261461666,2.4170000000000003
-195.89262614628637,2.418
-379.52825814756545,2.419
92.00000000001178,2.42
565.528258147643,2.4210000000000003
381.89262614608333,2.422
-203.89262614618565,2.423
-383.52825814760394,2.424
96.00000000011468,2.4250000000000003
575.5282581476044,2.426
394.89262614618406,2.427
-188.89262614626892,2.428
-368.52825814750184,2.4290000000000003
107.0000000002176,2.43
581.528258147566,2.431
396.8926261462847,2.432
-194.89262614616825,2.433
-379.52825814754027,2.434
89.00000000009312,2.435
557.5282581475979,2.436
368.89262614638545,2.437
-223.89262614625147,2.438
-407.52825814757875,2.439
64.99999999996867,2.44
539.5282581475594,2.441
353.8926261461183,2.442
-233.8926261463347,2.443
-413.52825814761724,2.444
62.99999999984419,2.445
542.5282581475913,2.446
363.8926261462189,2.447
-221.89262614623402,2.448
-402.5282581475854,2.449
73.00000000017447,2.45
545.528258147623,2.451
361.8926261463196,2.452
-228.8926261461333,2.453
-414.52825814755363,2.454
54.00000000005,2.455
522.5282581475846,2.456
335.8926261462364,2.457
-255.89262614640057,2.458
-440.5282581475921,2.459
31.999999999925535,2.46
505.52825814754607,2.461
321.89262614615313,2.462
-263.89262614629985,2.463
-444.5282581475603,2.464
34.00000000002844,2.465
512.5282581476481,2.466
333.89262614625386,2.467
-250.89262614619918,2.468
-430.52825814759876,2.469
44.00000000013135,2.47
519.5282581476097,2.471
335.8926261461706,2.472
-253.89262614609845,2.473
-439.52825814756693,2.474
30.00000000000688,2.475
499.5282581475712,2.476
311.89262614627125,2.477
-279.89262614636567,2.478
-463.5282581475352,2.479
10.000000000109788,2.48
484.52825814753277,2.481
302.892626146188,2.482
-282.892626146265,2.483
-460.52825814757364,2.484
17.99999999998532,2.485
498.52825814763486,2.486
319.89262614610476,2.487
-263.8926261461643,2.488
-443.52825814761206,2.489
34.00000000008823,2.49
509.5282581475964,2.491
326.8926261462055,2.492
-261.8926261462475,2.493
-447.52825814751003,2.494
22.99999999996376,2.495
493.5282581475579,2.496
306.89262614630616,2.497
-282.89262614633077,2.498
-466.5282581475485,2.499
7.000000000066666,2.5
481.5282581475897,2.501
298.89262614603894,2.5020000000000002
-286.8926261462301,2.503
-465.528258147587,2.504
15.999999999942197,2.505
497.5282581476215,2.5060000000000002
318.89262614613966,2.507
-264.8926261463133,2.508
-442.52825814762537,2.509
35.000000000045105,2.5100000000000002
511.528258147583,2.511
327.89262614624033,2.512
-259.89262614621265,2.513
-445.5282581475234,2.5140000000000002
26.00000000014801,2.515
497.52825814761485,2.516
311.89262614634106,2.517
-278.8926261462959,2.5180000000000002
-461.5282581475618,2.519
12.000000000023542,2.52
486.52825814757637,2.521
304.89262614607384,2.5220000000000002
-279.89262614637914,2.523
-456.5282581476003,2.524
22.999999999899075,2.525
503.5282581476082,2.5260000000000002
325.89262614617456,2.527
-256.8926261462784,2.528
-435.5282581475685,2.529
43.000000000229356,2.5300000000000002
518.5282581476399,2.531
334.89262614627523,2.532
-253.89262614617775,2.533
-439.5282581475367,2.5340000000000003
31.000000000104887,2.535
499.52825814760155,2.536
314.892626146192,2.537
-274.89262614644497,2.5380000000000003
-459.5282581475752,2.539
16.99999999998042,2.54
490.52825814756306,2.541
307.89262614610874,2.5420000000000003
-276.89262614634424,2.543
-454.52825814754334,2.544
25.99999999985595,2.545
504.5282581476651,2.5460000000000003
329.8926261462094,2.547
-252.89262614624357,2.548
-430.5282581475818,2.549
46.00000000018623,2.5500000000000003
521.5282581476266,2.551
340.89262614612613,2.552
-247.89262614614285,2.553
-432.52825814755,2.5540000000000003
38.00000000006177,2.555
507.5282581475882,2.556
321.89262614622686,2.557
-267.89262614641007,2.5580000000000003
-451.5282581475182,2.559
23.999999999937298,2.56
497.5282581475497,2.561
316.89262614632753,2.562
-267.89262614630934,2.563
-445.5282581475567,2.564
35.0000000000402,2.565
515.5282581475815,2.566
337.89262614606037,2.567
-245.89262614620867,2.568
-423.5282581475951,2.569
53.99999999991574,2.57
529.5282581476133,2.571
346.8926261461611,2.572
-241.8926261462919,2.573
-426.5282581476336,2.574
44.000000000018645,2.575
514.5282581475749,2.576
327.89262614626176,2.577
-261.8926261461912,2.578
-446.5282581475315,2.579
28.00000000012155,2.58
499.5282581476066,2.581
319.8926261463625,2.582
-265.8926261462745,2.583
-444.52825814757,2.584
36.99999999999708,2.585
518.5282581475683,2.586
341.8926261460952,2.587
-240.89262614635777,2.588
-419.5282581476085,2.589
56.999999999872614,2.59
531.5282581475999,2.591
349.89262614619594,2.592
-240.89262614625704,2.593
-423.52825814757665,2.594
47.000000000202895,2.595
516.5282581475615,2.596
328.8926261462966,2.597
-260.8926261461564,2.598
-444.5282581475449,2.599
30.000000000078426,2.6
505.5282581475933,2.601
323.89262614621344,2.602
-262.89262614642354,2.603
-438.5282581475833,2.604
40.99999999995396,2.605
519.5282581475549,2.606
343.89262614613017,2.607
-238.8926261463228,2.608
-417.5282581475515,2.609
58.99999999982949,2.61
535.5282581475867,2.611
351.89262614623084,2.612
-236.89262614622214,2.613
-422.52825814758995,2.614
49.00000000015977,2.615
518.5282581476184,2.616
332.89262614614756,2.617
-256.8926261461214,2.618
-440.5282581475582,2.619
35.00000000003531,2.62
508.52825814758,2.621
324.8926261462483,2.622
-260.8926261463887,2.623
-439.52825814752634,2.624
39.999999999910834,2.625
520.5282581475415,2.626
343.892626146165,2.6270000000000002
-237.89262614628797,2.628
-416.5282581475648,2.629
61.00000000001374,2.63
536.5282581476436,2.6310000000000002
352.89262614608174,2.632
-235.8926261461873,2.633
-419.5282581476033,2.634
51.00000000011665,2.6350000000000002
521.5282581476051,2.636
334.8926261461825,2.637
-256.8926261462705,2.638
-438.5282581475013,2.6390000000000002
35.999999999992184,2.64
509.52825814756665,2.641
328.89262614628313,2.642
-256.89262614635373,2.6430000000000002
-433.5282581475397,2.644
47.000000000095085,2.645
526.5282581475283,2.646
348.89262614601597,2.6470000000000002
-233.89262614625306,2.648
-413.52825814757813,2.649
63.99999999997062,2.65
539.5282581476303,2.6510000000000002
355.89262614611664,2.652
-231.89262614633634,2.653
-418.5282581476166,2.654
54.00000000007353,2.6550000000000002
524.5282581475918,2.656
337.89262614621737,2.657
-251.8926261462356,2.658
-435.5282581475146,2.6590000000000003
38.000000000176435,2.66
511.52825814755334,2.661
329.89262614631804,2.662
-254.8926261463189,2.6630000000000003
-432.528258147553,2.664
48.00000000005197,2.665
528.5282581475851,2.666
351.8926261460508,2.6670000000000003
-231.89262614640216,2.668
-409.5282581475915,2.669
67.9999999999275,2.67
542.528258147617,2.6710000000000003
359.89262614615154,2.672
-228.89262614630144,2.673
-414.5282581475597,2.674
57.00000000025778,2.6750000000000003
525.5282581475785,2.676
338.8926261462522,2.677
-252.89262614620077,2.678
-435.52825814752794,2.6790000000000003
39.00000000013331,2.68
513.5282581476104,2.681
331.892626146169,2.682
-252.89262614646793,2.6830000000000003
-430.52825814756636,2.684
50.000000000008846,2.685
529.5282581475718,2.686
354.8926261460857,2.6870000000000003
-228.89262614636726,2.688
-407.5282581475346,2.689
68.99999999988438,2.69
543.5282581475333,2.691
360.89262614618644,2.692
-227.89262614626654,2.693
-412.52825814757307,2.694
57.99999999998728,2.695
526.5282581476354,2.696
340.8926261462871,2.697
-248.89262614616587,2.698
-430.52825814761144,2.699
43.00000000009019,2.7
516.528258147597,2.701
334.8926261462039,2.702
-250.89262614624909,2.703
-427.5282581475094,2.704
52.99999999996572,2.705
533.5282581475585,2.706
356.89262614630456,2.707
-226.89262614633236,2.708
-403.5282581475479,2.709
73.00000000006862,2.71
548.5282581475201,2.711
365.8926261462213,2.712
-223.8926261462317,2.713
-406.52825814758637,2.714
62.99999999994416,2.715
533.5282581476222,2.716
345.89262614613807,2.717
-243.8926261463149,2.718
-426.52825814762485,2.719
48.000000000047066,2.72
522.5282581475836,2.721
340.8926261462388,2.722
-244.89262614621424,2.723
-421.52825814752276,2.724
58.000000000149974,2.725
537.5282581475451,2.726
360.89262614633947,2.727
-221.89262614629746,2.728
-400.52825814756125,2.729
76.00000000002551,2.73
551.5282581475769,2.731
368.89262614607225,2.732
-221.89262614638074,2.733
-406.5282581475997,2.734
64.99999999990104,2.735
535.5282581476088,2.736
347.892626146173,2.737
-242.89262614628,2.738
-424.5282581475679,2.739
50.00000000023132,2.74
524.5282581475703,2.741
342.89262614627364,2.742
-240.89262614617934,2.743
-419.52825814753606,2.744
61.00000000010685,2.745
540.5282581476022,2.746
362.89262614637437,2.747
-220.8926261464465,2.748
-399.52825814757455,2.749
77.99999999998238,2.75
552.5282581475637,2.751
369.8926261461071,2.7520000000000002
-217.89262614634583,2.753
-403.5282581475427,2.754
66.99999999985792,2.755
534.5282581475955,2.7560000000000002
348.8926261462078,2.757
-239.8926261462451,2.758
-423.5282581475812,2.759
50.000000000188194,2.7600000000000002
524.5282581476272,2.761
342.8926261463085,2.762
-240.89262614614444,2.763
-419.5282581475494,2.7640000000000002
60.00000000006373,2.765
541.5282581475888,2.766
363.8926261462253,2.767
-218.89262614641166,2.7680000000000002
-397.5282581475176,2.769
78.99999999993926,2.77
554.5282581475503,2.771
370.89262614614205,2.7720000000000002
-217.89262614631093,2.773
-403.5282581475561,2.774
67.00000000004216,2.775
536.5282581476524,2.7760000000000002
349.8926261462427,2.777
-240.89262614621026,2.778
-426.52825814759456,2.779
49.00000000014507,2.7800000000000002
523.5282581476139,2.781
340.89262614615944,2.782
-242.89262614629354,2.783
-420.52825814749247,2.7840000000000003
61.000000000020606,2.785
540.5282581475755,2.786
362.89262614626017,2.787
-217.8926261463768,2.7880000000000003
-398.5282581475309,2.789
79.0000000001235,2.79
553.528258147537,2.791
369.8926261461769,2.7920000000000003
-216.8926261462761,2.793
-403.5282581475694,2.794
66.99999999999905,2.795
535.528258147639,2.7960000000000003
347.8926261460937,2.797
-241.89262614617542,2.798
-423.52825814760786,2.799
50.00000000010195,2.8000000000000003
523.5282581476006,2.801
340.8926261461944,2.802
-243.89262614625858,2.803
-422.52825814750577,2.8040000000000003
58.00000000020486,2.805
537.5282581475622,2.806
359.8926261462951,2.807
-221.89262614634185,2.8080000000000003
-399.52825814754425,2.809
77.00000000008039,2.81
552.528258147594,2.811
369.89262614602785,2.8120000000000003
-219.89262614624118,2.813
-406.52825814758273,2.814
63.99999999995592,2.815
532.5282581475554,2.816
345.8926261461285,2.817
-242.89262614632446,2.818
-427.5282581475509,2.819
46.99999999983145,2.82
520.5282581475873,2.821
339.89262614622925,2.822
-244.89262614622373,2.823
-421.5282581475894,2.824
59.000000000161734,2.825
540.528258147619,2.826
362.8926261463299,2.827
-219.89262614612306,2.828
-399.52825814755755,2.829
77.00000000003726,2.83
552.5282581475806,2.831
368.8926261462467,2.832
-219.89262614639023,2.833
-404.5282581475258,2.834
66.9999999999128,2.835
537.5282581475421,2.836
350.8926261461635,2.837
-238.8926261462895,2.838
-423.5282581475642,2.839
51.0000000000157,2.84
524.5282581476442,2.841
343.89262614626415,2.842
-239.89262614618883,2.843
-419.5282581476027,2.844
61.00000000011861,2.845
539.5282581476058,2.846
363.8926261461809,2.847
-220.8926261460881,2.848
-399.52825814750065,2.849
75.99999999999415,2.85
551.5282581475673,2.851
369.8926261462816,2.852
-217.89262614635538,2.853
-403.52825814753913,2.854
67.00000000009705,2.855
537.5282581475287,2.856
349.8926261461983,2.857
-240.89262614625466,2.858
-422.52825814757756,2.859
50.99999999997258,2.86
525.5282581476308,2.861
342.89262614611505,2.862
-240.892626146154,2.863
-418.528258147616,2.864
62.00000000007549,2.865
541.5282581475924,2.866
364.8926261462158,2.867
-217.89262614623726,2.868
-397.528258147514,2.869
80.00000000017839,2.87
554.528258147554,2.871
371.89262614631645,2.872
-215.89262614632042,2.873
-402.52825814755244,2.874
68.00000000005393,2.875
538.5282581475858,2.876
351.8926261460493,2.8770000000000002
-237.8926261462198,2.878
-420.5282581475909,2.879
53.99999999992946,2.88
527.5282581476176,2.8810000000000002
346.89262614614995,2.882
-238.89262614630303,2.883
-415.5282581475591,2.884
64.00000000025975,2.8850000000000002
543.5282581475791,2.886
365.8926261462507,2.887
-216.8926261462023,2.888
-397.5282581475273,2.8890000000000002
80.00000000013527,2.89
554.5282581476109,2.891
372.89262614635135,2.892
-217.89262614628558,2.8930000000000002
-402.5282581475658,2.894
68.0000000000108,2.895
537.5282581475724,2.896
351.8926261460841,2.8970000000000002
-238.89262614636885,2.898
-421.5282581476042,2.899
53.999999999886334,2.9
527.5282581476042,2.9010000000000002
347.89262614618485,2.902
-237.89262614626813,2.903
-416.52825814757244,2.904
65.00000000021662,2.9050000000000002
544.528258147636,2.906
366.8926261462855,2.907
-215.89262614616746,2.908
-395.5282581475406,2.9090000000000003
81.00000000009216,2.91
556.5282581475976,2.911
373.89262614620225,2.912
-215.89262614643462,2.9130000000000003
-399.5282581475791,2.914
70.99999999996768,2.915
539.5282581475591,2.916
352.892626146119,2.9170000000000003
-235.89262614633395,2.918
-420.52825814754726,2.919
53.00000000007059,2.92
526.5282581476611,2.9210000000000003
343.89262614621975,2.922
-240.89262614623323,2.923
-420.52825814758575,2.924
61.00000000017349,2.9250000000000003
541.5282581476228,2.926
364.8926261461365,2.927
-217.89262614613256,2.928
-395.52825814755397,2.9290000000000003
80.00000000004903,2.93
555.5282581475842,2.931
373.8926261462372,2.932
-217.89262614639978,2.9330000000000003
-402.52825814752214,2.934
69.00000000015193,2.935
538.5282581475458,2.936
352.89262614615393,2.9370000000000003
-236.89262614629905,2.938
-419.5282581475606,2.939
54.00000000002747,2.94
528.5282581476479,2.9410000000000003
348.8926261460707,2.942
-236.89262614619838,2.943
-413.5282581475991,2.944
65.999999999903,2.945
545.5282581476094,2.946
366.8926261461713,2.947
-215.89262614628166,2.948
-395.52825814763753,2.949
81.00000000023329,2.95
554.5282581475709,2.951
372.89262614627205,2.952
-215.89262614618093,2.953
-400.52825814753544,2.954
71.00000000010881,2.955
541.5282581476027,2.956
355.8926261463727,2.957
-235.89262614626415,2.958
-419.5282581475739,2.959
56.99999999998435,2.96
529.5282581475642,2.961
347.89262614610556,2.962
-236.89262614634742,2.963
-413.5282581476124,2.964
66.99999999985988,2.965
546.528258147596,2.966
369.8926261462063,2.967
-212.89262614624676,2.968
-393.5282581475806,2.969
83.00000000019016,2.97
557.5282581476279,2.971
374.89262614630695,2.972
-214.89262614614603,2.973
-400.5282581475488,2.974
69.00000000006568,2.975
538.5282581475894,2.976
351.8926261462237,2.977
-238.89262614641325,2.978
-422.5282581475873,2.979
50.999999999941224,2.98
525.528258147551,2.981
344.8926261461404,2.982
-239.89262614631258,2.983
-418.52825814755545,2.984
62.000000000044125,2.985
541.528258147653,2.986
363.8926261462411,2.987
-219.89262614621185,2.988
-397.52825814759393,2.989
79.00000000014704,2.99
554.5282581476145,2.991
371.8926261461579,2.992
-217.89262614611118,2.993
-401.5282581475621,2.994
70.00000000002257,2.995
538.528258147576,2.996
352.8926261462586,2.997
-236.89262614637835,2.998
-421.5282581475303,2.999
52.9999999998981,3.0
527.5282581475376,3.001
347.89262614617536,3.0020000000000002
-236.89262614627762,3.003
-411.52825814756875,3.004
69.00000000000101,3.005
550.5282581476397,3.0060000000000002
374.8926261460921,3.007
-206.89262614617695,3.008
-387.52825814760723,3.009
91.00000000010391,3.0100000000000002
565.5282581476013,3.011
383.89262614619275,3.012
-204.89262614626023,3.013
-391.52825814750514,3.0140000000000002
77.99999999997945,3.015
548.5282581475627,3.016
362.8926261462935,3.017
-226.8926261463435,3.0180000000000002
-408.5282581475436,3.019
67.00000000008235,3.02
539.5282581475946,3.021
358.8926261460263,3.0220000000000002
-225.89262614624278,3.023
-403.5282581475821,3.024
75.99999999995788,3.025
555.5282581476263,3.0260000000000002
378.892626146127,3.027
-204.892626146326,3.028
-384.5282581476206,3.029
92.0000000000608,3.0300000000000002
567.5282581475878,3.031
383.8926261462277,3.032
-206.89262614622533,3.033
-391.52825814751856,3.0340000000000003
78.0000000001637,3.035
547.5282581476197,3.036
360.8926261463284,3.037
-228.89262614630854,3.0380000000000003
-412.5282581475569,3.039
63.00000000003923,3.04
536.5282581475813,3.041
353.89262614606116,3.0420000000000003
-229.89262614639182,3.043
-409.5282581475954,3.044
70.99999999991476,3.045
549.5282581476131,3.0460000000000003
371.89262614616183,3.047
-209.89262614629115,3.048
-391.52825814756363,3.049
84.00000000024504,3.0500000000000003
559.5282581476448,3.051
375.89262614626256,3.052
-213.89262614619042,3.053
-401.52825814753186,3.0540000000000003
68.00000000012058,3.055
537.5282581476064,3.056
351.8926261461793,3.057
-238.8926261464576,3.0580000000000003
-421.5282581475703,3.059
51.999999999996106,3.06
527.5282581475678,3.061
347.892626146096,3.0620000000000003
-238.89262614635692,3.063
-414.5282581475385,3.064
63.99999999987164,3.065
543.5282581476699,3.0660000000000003
367.89262614619673,3.067
-214.89262614625625,3.068
-394.52825814757693,3.069
83.00000000020192,3.0700000000000003
557.5282581476315,3.071
374.8926261461135,3.072
-213.89262614615558,3.073
-398.5282581476154,3.074
70.00000000007745,3.075
539.5282581475931,3.076
354.8926261462142,3.077
-234.8926261462388,3.078
-420.5282581475134,3.079
53.99999999995298,3.08
528.5282581475545,3.081
347.8926261463149,3.082
-237.89262614632207,3.083
-416.52825814755187,3.084
64.00000000005589,3.085
544.5282581475864,3.086
366.8926261460477,3.087
-215.89262614622135,3.088
-395.5282581475903,3.089
80.99999999993142,3.09
557.5282581476182,3.091
376.89262614614836,3.092
-212.89262614630462,3.093
-398.5282581476287,3.094
71.00000000003433,3.095
541.5282581475797,3.096
355.8926261462491,3.097
-235.89262614620395,3.098
-417.5282581475267,3.099
57.000000000137234,3.1
530.5282581476115,3.101
348.89262614634976,3.102
-235.89262614628717,3.103
-413.52825814756517,3.104
67.00000000001276,3.105
546.5282581475731,3.106
369.8926261460826,3.107
-212.8926261463704,3.108
-393.52825814760365,3.109
82.9999999998883,3.11
556.5282581476049,3.111
375.89262614618326,3.112
-213.89262614626972,3.113
-399.5282581475718,3.114
70.00000000021858,3.115
539.5282581475664,3.116
353.892626146284,3.117
-234.892626146169,3.118
-418.52825814754004,3.119
55.00000000009411,3.12
528.5282581475982,3.121
348.8926261462007,3.122
-235.8926261464362,3.123
-412.52825814757847,3.124
66.99999999996965,3.125
546.5282581475597,3.126
368.89262614611744,3.1270000000000002
-214.89262614633554,3.128
-392.5282581475467,3.129
83.99999999984517,3.13
557.5282581475915,3.1310000000000002
374.89262614621816,3.132
-213.89262614623487,3.133
-401.5282581475851,3.134
70.00000000017546,3.1350000000000002
540.5282581476233,3.136
354.8926261461349,3.137
-235.89262614613415,3.138
-419.52825814755334,3.1390000000000002
54.00000000005099,3.14
527.5282581475849,3.141
346.89262614623556,3.142
-239.8926261464013,3.1430000000000002
-418.5282581475215,3.144
58.99999999992652,3.145
536.5282581475465,3.146
355.89262614615234,3.1470000000000002
-232.89262614630064,3.148
-417.52825814756,3.149
53.00000000002943,3.15
523.5282581476484,3.1510000000000002
335.8926261460691,3.152
-257.8926261461999,3.153
-446.5282581475985,3.154
24.000000000132335,3.1550000000000002
492.52825814760996,3.156
307.8926261461698,3.157
-280.8926261462832,3.158
-461.5282581474964,3.1590000000000003
15.000000000007867,3.16
491.52825814757153,3.161
314.89262614627046,3.162
-266.89262614636647,3.1630000000000003
-443.52825814753487,3.164
39.000000000110774,3.165
521.528258147533,3.166
351.89262614600324,3.1670000000000003
-218.89262614626574,3.168
-378.5282581475733,3.169
123.9999999999863,3.17
629.5282581476351,3.1710000000000003
479.89262614610396,3.172
-75.89262614634902,3.173
-228.52825814761178,3.174
270.0000000000892,3.1750000000000003
765.5282581475967,3.176
602.8926261462046,3.177
31.107373853751653,3.178
-133.5282581475097,3.1790000000000003
356.00000000019213,3.18
843.5282581475583,3.181
677.8926261463054,3.182
108.10737385366838,3.1830000000000003
-52.52825814754817,3.184
442.00000000006764,3.185
938.5282581475899,3.186
775.8926261460382,3.1870000000000003
204.10737385358516,3.188
32.471741852413345,3.189
514.9999999999432,3.19
991.5282581476217,3.1910000000000003
805.8926261461388,3.192
201.10737385368589,3.193
-7.528258147554823,3.194
433.0000000002735,3.1950000000000003
865.5282581475833,3.196
638.8926261462395,3.197
5.107373853786555,3.198
-224.52825814752305,3.1990000000000003
209.000000000149,3.2
645.5282581476151,3.201
431.8926261461563,3.202
-177.89262614611272,3.203
-373.5282581475615,3.204
93.00000000002453,3.205
564.5282581475767,3.206
382.892626146257,3.207
-204.89262614637994,3.208
-387.5282581475297,3.209
85.99999999990006,3.21
557.5282581475382,3.211
371.8926261461737,3.212
-221.89262614627927,3.213
-408.5282581475682,3.214
59.00000000000297,3.215
527.5282581476403,3.216
339.89262614627444,3.217
-251.89262614617854,3.218
-439.5282581476066,3.219
32.00000000010587,3.22
503.5282581476018,3.221
321.89262614619116,3.222
-265.89262614626176,3.223
-446.5282581475046,3.224
31.999999999981405,3.225
511.52825814756335,3.226
332.89262614629183,3.227
-251.89262614634504,3.228
-432.528258147543,3.229
42.00000000008431,3.23
516.5282581475249,3.231
333.89262614620867,3.232
-258.89262614624437,3.233
-444.5282581475815,3.234
23.999999999959844,3.235
494.52825814762696,3.236
307.8926261461254,3.237
-283.8926261463276,3.238
-467.52825814761997,3.239
6.000000000062752,3.24
481.5282581475885,3.241
299.89262614622606,3.242
-285.8926261462269,3.243
-463.52825814751793,3.244
16.000000000165656,3.245
495.52825814755,3.246
318.8926261463268,3.247
-263.8926261463102,3.248
-443.5282581475564,3.249
33.00000000004119,3.25
507.5282581475818,3.251
325.8926261460596,3.2520000000000002
-263.89262614639347,3.253
-450.5282581475948,3.254
20.999999999916724,3.255
491.5282581476136,3.2560000000000002
306.89262614616024,3.257
-283.89262614629274,3.258
-467.528258147563,3.259
6.000000000247002,3.2600000000000002
482.52825814764543,3.261
302.892626146077,3.262
-280.89262614637596,3.263
-459.52825814753123,3.2640000000000002
20.000000000122537,3.265
500.52825814760695,3.266
323.89262614617775,3.267
-258.89262614627523,3.2680000000000002
-438.5282581475697,3.269
37.99999999999807,3.27
512.5282581475685,3.271
329.8926261462784,3.2720000000000002
-260.89262614617456,3.273
-447.52825814760814,3.274
23.9999999998736,3.275
495.52825814767056,3.2760000000000002
310.8926261460112,3.277
-278.8926261464418,3.278
-461.5282581476466,3.279
14.00000000020388,3.2800000000000002
489.52825814763213,3.281
308.89262614611187,3.282
-275.8926261463411,3.283
-453.5282581475446,3.2840000000000003
26.000000000079414,3.285
505.52825814759365,3.286
331.8926261462126,3.287
-252.8926261462404,3.2880000000000003
-428.528258147583,3.289
47.999999999954944,3.29
523.5282581475551,3.291
340.8926261459454,3.2920000000000003
-248.89262614613972,3.293
-435.52825814762144,3.294
33.99999999983048,3.295
505.52825814765725,3.2960000000000003
319.8926261460461,3.297
-268.8926261464069,3.298
-450.5282581475194,3.299
23.000000000160757,3.3000000000000003
498.52825814761877,3.301
318.8926261461468,3.302
-265.89262614630616,3.303
-444.5282581475579,3.3040000000000003
37.00000000003629,3.305
517.5282581475803,3.306
341.8926261462475,3.307
-241.8926261462055,3.3080000000000003
-421.5282581475964,3.309
54.99999999991182,3.31
530.5282581475419,3.311
346.8926261459803,3.3120000000000003
-241.8926261464727,3.313
-427.5282581474943,3.314
40.999999999787356,3.315
512.528258147644,3.3160000000000003
326.89262614608094,3.317
-262.89262614637204,3.318
-445.52825814753277,3.319
30.000000000117634,3.3200000000000003
505.52825814760547,3.321
324.89262614618167,3.322
-260.8926261462713,3.323
-437.5282581475712,3.3240000000000003
41.999999999993165,3.325
522.5282581475669,3.326
346.89262614628234,3.327
-236.89262614653848,3.3280000000000003
-415.5282581474691,3.329
60.9999999998687,3.33
536.5282581475285,3.331
352.89262614638307,3.332
-234.8926261464378,3.333
-420.5282581475076,3.334
50.00000000019898,3.335
521.5282581474901,3.336
337.8926261461159,3.337
-251.89262614633708,3.338
-434.52825814754607,3.339
39.000000000074515,3.34
512.5282581475922,3.341
332.89262614621657,3.342
-252.8926261462364,3.343
-428.52825814758455,3.344
52.99999999995005,3.345
533.5282581475537,3.346
358.8926261463173,3.347
-224.89262614613574,3.348
-403.52825814748246,3.349
74.00000000028032,3.35
548.5282581475152,3.351
366.89262614641797,3.352
-223.89262614640296,3.353
-408.52825814752094,3.354
61.00000000015586,3.355
531.5282581476172,3.356
346.89262614615075,3.357
-240.89262614630223,3.358
-425.52825814755937,3.359
48.00000000003139,3.36
523.5282581475788,3.361
342.8926261462515,3.362
-239.89262614620156,3.363
-417.52825814759785,3.364
63.00000000036167,3.365
543.5282581475403,3.366
368.89262614635214,3.367
-215.89262614610084,3.368
-395.52825814749576,3.369
81.00000000023721,3.37
557.5282581476424,3.371
375.8926261464528,3.372
-213.892626146368,3.373
-398.52825814753425,3.374
70.00000000011273,3.375
541.528258147604,3.376
357.8926261461856,3.3770000000000002
-232.89262614626733,3.378
-414.5282581475727,3.379
60.99999999998827,3.38
536.5282581475655,3.3810000000000002
356.8926261462863,3.382
-226.89262614616666,3.383
-405.52825814761115,3.384
75.00000000031855,3.3850000000000002
555.5282581476675,3.386
378.892626146387,3.387
-203.892626146066,3.388
-382.5282581475091,3.3890000000000002
94.00000000019408,3.39
570.528258147629,3.391
388.8926261461198,3.392
-200.89262614633316,3.3930000000000002
-385.52825814754755,3.394
85.00000000006962,3.395
555.5282581475906,3.396
371.89262614622055,3.3970000000000002
-218.8926261462325,3.398
-401.52825814758603,3.399
73.99999999994515,3.4
549.5282581476927,3.4010000000000002
369.8926261463212,3.402
-212.89262614613176,3.403
-389.5282581476245,3.404
91.00000000027542,3.4050000000000002
570.5282581476542,3.406
394.892626146054,3.407
-188.8926261460311,3.408
-366.5282581475224,3.4090000000000003
109.00000000015096,3.41
584.5282581476158,3.411
402.89262614615467,3.412
-187.8926261462983,3.4130000000000003
-372.5282581475609,3.414
98.00000000002649,3.415
570.5282581475773,3.416
385.8926261462554,3.4170000000000003
-202.89262614619759,3.418
-385.52825814759933,3.419
88.99999999990203,3.42
564.5282581476794,3.4210000000000003
385.89262614598823,3.422
-197.89262614609692,3.423
-375.5282581476378,3.424
105.0000000002323,3.4250000000000003
584.5282581476408,3.426
408.8926261460889,3.427
-174.89262614636408,3.428
-354.5282581475357,3.4290000000000003
121.00000000010783,3.43
595.5282581476024,3.431
414.8926261461896,3.432
-175.89262614626335,3.4330000000000003
-360.5282581475742,3.434
109.99999999998337,3.435
580.528258147564,3.436
396.89262614592235,3.4370000000000003
-194.89262614616268,3.438
-376.5282581476127,3.439
96.9999999998589,3.44
571.5282581476661,3.4410000000000003
390.8926261460231,3.442
-194.8926261464299,3.443
-371.5282581476512,3.444
107.00000000018917,3.4450000000000003
587.5282581476276,3.446
409.89262614612375,3.447
-173.89262614632923,3.448
-354.52825814754914,3.4490000000000003
121.00000000006472,3.45
595.5282581475891,3.451
412.8926261462245,3.452
-177.8926261462285,3.4530000000000003
-365.5282581475875,3.454
101.99999999994024,3.455
571.5282581475506,3.456
386.89262614632514,3.457
-203.89262614649567,3.458
-388.528258147626,3.459
84.99999999981578,3.46
557.5282581475121,3.461
374.892626146058,3.462
-210.892626146395,3.463
-389.52825814752396,3.464
88.00000000014606,3.465
566.5282581476142,3.466
388.8926261461587,3.467
-197.89262614629428,3.468
-376.52825814756244,3.469
97.00000000002159,3.47
570.5282581475758,3.471
385.8926261462594,3.472
-205.8926261461936,3.473
-393.52825814760087,3.474
73.99999999989713,3.475
542.5282581475374,3.476
355.8926261463601,3.477
-235.89262614646083,3.478
-421.52825814749883,3.479
51.0000000002274,3.48
521.5282581474988,3.481
341.8926261460928,3.482
-244.89262614636016,3.483
-423.5282581475373,3.484
54.000000000102936,3.485
533.5282581476009,3.486
354.89262614619355,3.487
-230.89262614625943,3.488
-411.52825814757574,3.489
62.99999999997847,3.49
536.5282581475624,3.491
351.8926261462942,3.492
-238.89262614615876,3.493
-426.5282581474737,3.494
42.999999999854,3.495
511.52825814752396,3.496
326.89262614639495,3.497
-265.8926261464259,3.498
-450.52825814751213,3.499
22.00000000018428,3.5
495.52825814762605,3.501
314.8926261461278,3.5020000000000002
-269.8926261463252,3.503
-449.5282581475506,3.504
30.000000000059813,3.505
509.52825814758756,3.5060000000000002
332.89262614622845,3.507
-252.89262614622453,3.508
-433.5282581475891,3.509
41.99999999993535,3.5100000000000002
516.5282581475492,3.511
333.8926261463292,3.512
-257.8926261461238,3.513
-444.528258147487,3.5140000000000002
25.000000000265626,3.515
495.5282581476512,3.516
311.89262614642985,3.517
-279.8926261463911,3.5180000000000002
-463.5282581475255,3.519
10.000000000141158,3.52
484.52825814761275,3.521
304.8926261461626,3.5220000000000002
-280.89262614629035,3.523
-458.5282581475639,3.524
21.00000000001669,3.525
500.52825814757426,3.5260000000000002
323.8926261462633,3.527
-259.8926261461897,3.528
-440.5282581476024,3.529
35.00000000034697,3.5300000000000002
511.5282581476763,3.531
329.892626146364,3.532
-261.89262614608896,3.533
-446.5282581475003,3.5340000000000003
24.000000000222503,3.535
494.5282581476378,3.536
310.89262614609686,3.537
-279.8926261463561,3.5380000000000003
-463.5282581475388,3.539
11.000000000098035,3.54
485.5282581475994,3.541
307.89262614619753,3.5420000000000003
-276.89262614625545,3.543
-454.5282581475773,3.544
23.999999999973568,3.545
503.5282581477014,3.5460000000000003
326.89262614629826,3.547
-257.8926261461547,3.548
-437.52825814761576,3.549
40.00000000030385,3.5500000000000003
513.528258147663,3.551
331.89262614603103,3.552
-258.89262614605406,3.553
-444.52825814751367,3.5540000000000003
25.00000000017938,3.555
496.5282581476245,3.556
311.8926261461317,3.557
-277.8926261463213,3.5580000000000003
-459.5282581475521,3.559
14.000000000054914,3.56
488.5282581475861,3.561
309.89262614623243,3.5620000000000003
-275.8926261462206,3.563
-454.5282581475906,3.564
25.999999999930445,3.565
505.5282581476881,3.5660000000000003
330.8926261459652,3.567
-254.89262614611988,3.568
-434.52825814762906,3.569
41.00000000026073,3.5700000000000003
516.5282581476497,3.571
335.89262614606594,3.572
-254.89262614638704,3.573
-439.52825814752697,3.5740000000000003
30.000000000136257,3.575
500.52825814761115,3.576
316.8926261461666,3.577
-272.8926261462864,3.5780000000000003
-456.52825814756545,3.579
18.00000000001179,3.58
492.5282581475727,3.581
312.8926261458994,3.5820000000000003
-270.89262614618565,3.583
-448.52825814760394,3.584
29.999999999887322,3.585
510.5282581475343,3.586
334.8926261460001,3.587
-248.89262614645287,3.588
-428.52825814764236,3.589
45.999999999762856,3.59
522.5282581476363,3.591
341.8926261461008,3.592
-247.8926261463522,3.593
-433.52825814754027,3.594
35.00000000009314,3.595
505.52825814759785,3.596
321.8926261462015,3.597
-268.8926261462515,3.598
-450.52825814757875,3.599
23.99999999996867,3.6
498.52825814755937,3.601
318.8926261463022,3.602
-266.8926261465187,3.603
-443.52825814761724,3.604
35.9999999998442,3.605
516.528258147521,3.606
340.892626146035,3.607
-245.89262614641797,3.608
-424.5282581475152,3.609
49.99999999971973,3.61
526.528258147623,3.611
344.8926261461357,3.612
-245.8926261463173,3.613
-430.52825814755363,3.614
39.000000000050015,3.615
509.52825814758455,3.616
325.8926261462364,3.617
-264.89262614621657,3.618
-448.5282581475921,3.619
24.999999999925546,3.62
501.52825814754607,3.621
322.8926261463371,3.622
-262.8926261464838,3.623
-439.5282581474901,3.624
39.99999999980108,3.625
519.5282581475076,3.626
342.89262614606986,3.6270000000000002
-241.89262614638312,3.628
-420.5282581475285,3.629
54.00000000013136,3.63
530.5282581476097,3.6310000000000002
349.8926261461706,3.632
-240.8926261462824,3.633
-426.52825814756693,3.634
43.00000000000689,3.6350000000000002
515.5282581475713,3.636
330.89262614627125,3.637
-259.8926261461817,3.638
-442.5282581474649,3.6390000000000002
32.99999999988243,3.64
507.52825814753277,3.641
326.892626146372,3.642
-258.8926261464489,3.6430000000000002
-437.5282581475034,3.644
41.0000000002127,3.645
522.5282581474943,3.646
345.89262614610476,3.6470000000000002
-238.89262614634822,3.648
-417.52825814754186,3.649
57.000000000088235,3.65
532.5282581475964,3.6510000000000002
352.8926261462055,3.652
-237.8926261462475,3.653
-422.5282581475803,3.654
45.99999999996377,3.6550000000000002
516.5282581475578,3.656
332.89262614630616,3.657
-258.8926261461469,3.658
-441.52825814747825,3.6590000000000003
33.00000000029405,3.66
507.5282581475194,3.661
328.8926261464069,3.662
-256.89262614641405,3.6630000000000003
-434.5282581475167,3.664
44.00000000016958,3.665
524.5282581476215,3.666
346.89262614613966,3.6670000000000003
-236.89262614631332,3.668
-416.52825814755516,3.669
60.00000000004511,3.67
535.5282581475831,3.6710000000000003
354.89262614624033,3.672
-236.89262614621265,3.673
-421.52825814759365,3.674
48.000000000375394,3.6750000000000003
518.5282581475446,3.676
334.89262614634106,3.677
-254.89262614611192,3.678
-436.52825814749156,3.6790000000000003
37.00000000025093,3.68
512.5282581476467,3.681
331.89262614607384,3.682
-252.89262614637914,3.6830000000000003
-431.52825814753004,3.684
47.00000000012646,3.685
527.5282581476082,3.686
351.8926261461745,3.6870000000000003
-233.89262614627847,3.688
-413.5282581475685,3.689
63.00000000000199,3.69
538.5282581475697,3.6910000000000003
357.8926261462752,3.692
-231.8926261461778,3.693
-417.52825814760695,3.694
52.00000000033227,3.6950000000000003
523.5282581476717,3.696
338.8926261463759,3.697
-250.89262614607708,3.698
-434.52825814750486,3.6990000000000003
39.000000000207805,3.7
514.5282581476333,3.701
334.89262614610874,3.702
-250.89262614634424,3.7030000000000003
-428.52825814754334,3.704
50.00000000008334,3.705
530.5282581475949,3.706
353.8926261462094,3.7070000000000003
-229.89262614624357,3.708
-409.5282581475818,3.709
66.99999999995887,3.71
541.5282581476969,3.7110000000000003
360.89262614631014,3.712
-228.89262614614285,3.713
-415.5282581476203,3.714
54.9999999998344,3.715
524.5282581476584,3.716
341.89262614604297,3.717
-248.89262614641012,3.718
-432.52825814765873,3.719
41.00000000016468,3.72
515.52825814762,3.721
336.8926261461436,3.722
-249.8926261463094,3.723
-429.5282581475567,3.724
50.00000000004022,3.725
531.5282581475815,3.726
355.8926261462443,3.727
-228.89262614620873,3.728
-407.5282581475951,3.729
67.99999999991574,3.73
542.528258147543,3.731
361.8926261459771,3.732
-228.8926261464759,3.733
-414.5282581476336,3.734
54.99999999979128,3.735
526.5282581476451,3.736
341.8926261460778,3.737
-248.89262614637516,3.738
-432.5282581475315,3.739
42.00000000012156,3.74
515.5282581476066,3.741
335.8926261461785,3.742
-248.8926261462745,3.743
-426.52825814757,3.744
51.999999999997094,3.745
531.5282581475683,3.746
353.8926261462792,3.747
-229.89262614654172,3.748
-409.5282581476085,3.749
65.99999999987263,3.75
542.5282581475298,3.751
359.892626146012,3.7520000000000002
-229.892626146441,3.753
-416.5282581475064,3.754
52.999999999748155,3.755
524.5282581476317,3.7560000000000002
341.89262614611266,3.757
-249.89262614634032,3.758
-432.5282581475449,3.759
42.00000000007844,3.7600000000000002
517.5282581475933,3.761
337.8926261462134,3.762
-246.89262614623965,3.763
-424.5282581475833,3.7640000000000002
54.99999999995397,3.765
533.5282581475549,3.766
359.89262614631406,3.767
-225.8926261465068,3.7680000000000002
-405.5282581474812,3.769
69.9999999998295,3.77
544.5282581475165,3.771
364.8926261460469,3.7720000000000002
-226.8926261464061,3.773
-411.5282581475197,3.774
58.00000000015978,3.775
529.5282581476184,3.7760000000000002
346.89262614614756,3.777
-243.89262614630542,3.778
-426.5282581475582,3.779
47.000000000035314,3.7800000000000002
522.52825814758,3.781
342.8926261462483,3.782
-242.8926261462047,3.783
-421.52825814745614,3.7840000000000003
57.99999999991085,3.785
536.5282581475416,3.786
361.89262614634896,3.787
-222.8926261464719,3.7880000000000003
-404.5282581474946,3.789
71.00000000024113,3.79
545.528258147503,3.791
363.89262614608174,3.7920000000000003
-224.89262614637124,3.793
-408.528258147533,3.794
62.00000000011666,3.795
530.5282581476051,3.7960000000000003
346.89262614618247,3.797
-242.89262614627052,3.798
-424.5282581475715,3.799
48.99999999999219,3.8000000000000003
523.5282581475667,3.801
341.89262614628313,3.802
-243.89262614616985,3.803
-420.52825814746944,3.8040000000000003
58.00000000032247,3.805
539.5282581475283,3.806
361.89262614638386,3.807
-220.892626146437,3.8080000000000003
-401.5282581475079,3.809
75.000000000198,3.81
549.5282581476303,3.811
368.89262614611664,3.8120000000000003
-222.89262614633634,3.813
-407.52825814754635,3.814
64.00000000007354,3.815
534.5282581475918,3.8160000000000003
350.89262614621737,3.817
-239.8926261462356,3.818
-423.52825814758484,3.819
51.000000000403816,3.8200000000000003
524.5282581475533,3.821
344.89262614631804,3.822
-240.89262614613494,3.823
-419.5282581474828,3.8240000000000003
60.00000000027935,3.825
539.5282581476554,3.826
362.89262614641876,3.827
-221.89262614640216,3.8280000000000003
-402.5282581475212,3.829
75.00000000015488,3.83
549.528258147617,3.831
368.89262614615154,3.8320000000000003
-221.89262614630144,3.833
-405.52825814755965,3.834
65.00000000003041,3.835
534.5282581475785,3.8360000000000003
350.8926261462522,3.837
-238.89262614620077,3.838
-422.52825814759814,3.839
50.999999999905945,3.84
526.5282581476806,3.841
346.89262614635294,3.842
-239.89262614610004,3.843
-417.5282581476366,3.844
62.00000000023623,3.845
542.5282581476421,3.846
365.8926261460857,3.847
-218.89262614599937,3.848
-399.5282581475346,3.849
76.00000000011175,3.85
553.5282581476037,3.851
371.89262614618644,3.852
-219.89262614626654,3.853
-404.52825814757307,3.854
65.9999999999873,3.855
537.5282581475651,3.856
352.8926261462871,3.857
-237.89262614616587,3.858
-421.52825814761144,3.859
51.99999999986282,3.86
526.5282581476672,3.861
345.8926261460199,3.862
-239.89262614606514,3.863
-418.5282581476499,3.864
61.000000000193104,3.865
539.5282581476288,3.866
362.8926261461206,3.867
-222.89262614633236,3.868
-403.5282581475479,3.869
72.00000000006864,3.87
548.5282581475903,3.871
368.8926261462213,3.872
-222.8926261462317,3.873
-406.52825814758637,3.874
64.99999999994417,3.875
537.5282581475519,3.876
352.8926261459541,3.8770000000000002
-236.89262614613097,3.878
-422.5282581476248,3.879
51.9999999998197,3.88
527.5282581476539,3.8810000000000002
346.89262614605485,3.882
-239.8926261463982,3.883
-419.52825814752276,3.884
60.00000000014998,3.8850000000000002
540.5282581476155,3.886
364.8926261461555,3.887
-220.89262614629746,3.888
-401.52825814756125,3.8890000000000002
75.00000000002551,3.89
551.5282581475769,3.891
370.89262614625625,3.892
-220.8926261461968,3.8930000000000002
-406.5282581475997,3.894
64.99999999990105,3.895
536.5282581475385,3.896
351.89262614598897,3.8970000000000002
-239.892626146464,3.898
-424.52825814763816,3.899
48.99999999977658,3.9
522.5282581476406,3.9010000000000002
343.8926261460897,3.902
-242.89262614636328,3.903
-421.52825814753606,3.904
58.00000000010686,3.9050000000000002
539.5282581476022,3.906
361.89262614619037,3.907
-221.89262614626261,3.908
-401.52825814757455,3.9090000000000003
74.99999999998239,3.91
550.5282581475637,3.911
367.8926261462911,3.912
-220.89262614652978,3.9130000000000003
-405.52825814761303,3.914
65.99999999985792,3.915
536.5282581475252,3.916
352.89262614602393,3.9170000000000003
-239.8926261464291,3.918
-423.52825814751094,3.919
50.0000000001882,3.92
526.5282581476272,3.9210000000000003
346.8926261461246,3.922
-239.89262614632838,3.923
-419.5282581475494,3.924
61.000000000063736,3.9250000000000003
540.5282581475888,3.926
363.8926261462253,3.927
-219.8926261462277,3.928
-399.52825814758785,3.9290000000000003
75.99999999993926,3.93
553.5282581475503,3.931
372.892626146326,3.932
-214.89262614649493,3.9330000000000003
-400.52825814748576,3.934
70.00000000026955,3.935
540.5282581475119,3.936
354.8926261460588,3.9370000000000003
-233.8926261463942,3.938
-418.52825814752424,3.939
55.000000000145086,3.94
529.5282581476139,3.9410000000000003
348.89262614615944,3.942
-237.89262614629354,3.943
-416.5282581475627,3.944
63.00000000002061,3.9450000000000003
544.5282581475756,3.946
366.89262614626017,3.947
-217.8926261461928,3.948
-397.52825814746063,3.9490000000000003
78.0000000003509,3.95
554.528258147537,3.951
372.89262614636084,3.952
-215.89262614645997,3.9530000000000003
-400.5282581474991,3.954
69.00000000022642,3.955
540.528258147639,3.956
356.8926261460937,3.9570000000000003
-234.8926261463593,3.958
-418.5282581475376,3.959
56.00000000010196,3.96
530.5282581476006,3.9610000000000003
349.8926261461944,3.962
-236.89262614625864,3.963
-417.528258147576,3.964
63.00000000043224,3.9650000000000003
544.5282581475622,3.966
366.8926261462951,3.967
-216.8926261461579,3.968
-396.5282581476145,3.969
79.00000000030778,3.97
555.5282581476642,3.971
373.8926261463958,3.972
-214.8926261460573,3.973
-400.5282581475124,3.974
70.0000000001833,3.975
541.5282581476257,3.976
356.8926261461285,3.977
-233.89262614632446,3.978
-418.5282581475509,3.979
56.00000000005884,3.98
530.5282581475873,3.981
349.89262614622925,3.982
-235.89262614622373,3.983
-415.5282581475894,3.984
63.99999999993437,3.985
544.5282581476893,3.986
366.8926261463299,3.987
-216.89262614612306,3.988
-397.5282581476278,3.989
80.00000000026465,3.99
555.5282581476508,3.991
375.8926261460627,3.992
-213.89262614602234,3.993
-398.5282581475258,3.994
72.00000000014018,3.995
544.5282581476124,3.996
358.8926261461634,3.997
-231.89262614628956,3.998
-416.5282581475642,3.999
57.00000000001572,4.0
532.5282581477145,4.001
350.8926261462641,4.002
-235.8926261461889,4.003
-416.52825814746217,4.0040000000000004
62.999999999891244,4.005
543.5282581476761,4.006
364.8926261463648,4.007
-218.89262614608816,4.008
-399.52825814750065,4.009
76.99999999976679,4.01
553.5282581476375,4.011
370.8926261460976,4.0120000000000005
-216.89262614635538,4.013
-402.5282581475391,4.014
68.99999999964231,4.015
540.5282581475991,4.016
354.8926261461983,4.017
-234.89262614625466,4.018
-418.52825814757756,4.019
56.00000000042734,4.0200000000000005
530.5282581475606,4.021
350.8926261459311,4.022
-235.892626146154,4.023
-414.528258147616,4.024
65.00000000030288,4.025
547.5282581475221,4.026
371.8926261460318,4.027
-211.8926261464212,4.0280000000000005
-392.52825814765447,4.029
85.0000000001784,4.03
562.5282581474837,4.031
380.8926261461325,4.032
-207.89262614632048,4.033
-393.52825814755244,4.034
78.00000000005394,4.035
549.5282581477263,4.0360000000000005
364.89262614623317,4.037
-223.8926261462198,4.038
-408.52825814759086,4.039
65.99999999992947,4.04
542.5282581476879,4.041
360.8926261463339,4.042
-225.89262614648698,4.043
-405.5282581474888,4.0440000000000005
74.999999999805,4.045
554.5282581476494,4.046
375.89262614643457,4.047
-206.8926261463863,4.048
-387.5282581475273,4.049
88.99999999968054,4.05
566.5282581476109,4.051
384.89262614579945,4.0520000000000005
-203.89262614628558,4.053
-390.5282581475658,4.054
81.00000000001081,4.055
550.5282581475724,4.056
366.8926261459002,4.057
-224.8926261461849,4.058
-409.52825814760416,4.059
64.00000000034109,4.0600000000000005
537.528258147534,4.061
355.89262614600085,4.062
-231.89262614608418,4.063
-411.5282581475022,4.064
67.00000000021663,4.065
547.5282581474955,4.066
369.8926261461016,4.067
-215.8926261463514,4.0680000000000005
-395.5282581475406,4.069
81.00000000009216,4.07
558.5282581475976,4.071
376.89262614620225,4.072
-211.89262614661857,4.073
-398.5282581475791,4.074
72.9999999999677,4.075
544.5282581476996,4.0760000000000005
358.892626146303,4.077
-230.8926261465179,4.078
-416.5282581476176,4.079
57.999999999843226,4.08
533.5282581476612,4.081
351.89262614640364,4.082
-231.89262614641723,4.083
-411.5282581475155,4.0840000000000005
67.0000000001735,4.085
546.5282581476228,4.086
368.89262614650437,4.087
-215.8926261463165,4.088
-397.52825814755397,4.089
80.00000000004904,4.09
556.5282581475842,4.091
375.89262614586926,4.0920000000000005
-213.89262614621583,4.093
-397.5282581474519,4.094
72.99999999992457,4.095
545.5282581475458,4.096
359.8926261459699,4.097
-229.8926261461151,4.098
-414.52825814749036,4.099
59.9999999998001,4.1
534.5282581476479,4.101
353.89262614607065,4.102
-232.89262614601444,4.103
-411.5282581475288,4.104
67.00000000013038,4.105
547.5282581476094,4.106
369.8926261461713,4.107
-214.8926261459137,4.108
-394.52825814756727,4.109
81.00000000000591,4.11
557.5282581475709,4.111
376.89262614627205,4.112
-212.89262614654882,4.113
-396.52825814760575,4.114
75.0000000003362,4.115
547.5282581475325,4.116
361.8926261463727,4.117
-228.8926261464481,4.118
-412.52825814764424,4.119
61.00000000021173,4.12
536.5282581476345,4.121
351.89262614610556,4.122
-232.89262614634742,4.123
-412.5282581476826,4.124
65.00000000008725,4.125
545.528258147596,4.126
368.8926261462063,4.127
-215.89262614624676,4.128
-395.52825814744006,4.1290000000000004
79.9999999999628,4.13
556.5282581475576,4.131
376.89262614630695,4.132
-211.89262614614603,4.133
-396.52825814747854,4.134
73.99999999983832,4.135
546.5282581476597,4.136
359.89262614603973,4.1370000000000005
-228.89262614604536,4.138
-413.52825814751696,4.139
61.99999999971386,4.14
536.5282581476212,4.141
354.8926261461404,4.142
-231.89262614631258,4.143
-411.52825814755545,4.144
67.00000000049889,4.1450000000000005
548.5282581475827,4.146
369.8926261462411,4.147
-213.89262614621185,4.148
-393.52825814759393,4.149
83.00000000037441,4.15
559.5282581475443,4.151
378.89262614597396,4.152
-209.89262614647902,4.1530000000000005
-394.5282581476324,4.154
76.00000000024995,4.155
548.5282581475058,4.156
362.89262614607463,4.157
-227.89262614637835,4.158
-411.52825814767084,4.159
62.00000000012548,4.16
537.5282581476079,4.1610000000000005
354.89262614617536,4.162
-232.89262614627762,4.163
-412.52825814756875,4.164
66.00000000000101,4.165
544.52825814771,4.166
366.89262614627603,4.167
-219.89262614617695,4.168
-401.5282581474667,4.1690000000000005
71.99999999987655,4.17
545.5282581476715,4.171
359.89262614637676,4.172
-234.89262614644417,4.173
-425.52825814750514,4.174
41.99999999975208,4.175
510.528258147633,4.176
322.8926261461095,4.1770000000000005
-268.8926261463435,4.178
-452.5282581475436,4.179
21.99999999962761,4.18
497.52825814759456,4.181
318.8926261462102,4.182
-264.8926261462428,4.183
-441.5282581475821,4.184
41.00000000041264,4.1850000000000005
526.528258147556,4.186
351.89262614594304,4.187
-227.8926261461421,4.188
-405.5282581476206,4.189
75.00000000028817,4.19
557.5282581475176,4.191
385.8926261460437,4.192
-188.89262614640927,4.1930000000000005
-354.5282581475185,4.194
144.0000000001637,4.195
647.5282581474792,4.196
495.89262614614444,4.197
-60.892626146308544,4.198
-212.52825814755693,4.199
291.0000000000392,4.2
793.5282581477218,4.2010000000000005
633.8926261462451,4.202
69.10737385342418,4.203
-92.52825814759541,4.204
399.9999999999148,4.205
891.5282581476833,4.206
726.8926261463458,4.207
153.1073738535249,4.208
-15.528258147493375,4.2090000000000005
470.9999999997903,4.21
955.5282581476448,4.211
779.8926261464464,4.212
192.10737385362557,4.213
5.471741852468142,4.214
468.00000000012056,4.215
926.5282581476064,4.216
722.8926261458114,4.2170000000000005
107.1073738537263,4.218
-108.52825814757028,4.219
328.99999999999613,4.22
763.5282581475678,4.221
541.8926261459121,4.222
-84.89262614617303,4.223
-300.52825814746825,4.224
146.99999999987165,4.225
603.5282581475294,4.226
409.8926261460128,4.227
-183.8926261460723,4.228
-371.52825814750673,4.229
99.00000000020192,4.23
571.528258147491,4.231
386.8926261461135,4.232
-204.89262614597163,4.233
-391.52825814754516,4.234
78.00000000007746,4.235
546.5282581475931,4.236
359.8926261462142,4.237
-234.89262614660674,4.238
-420.5282581475836,4.239
49.99999999995299,4.24
521.5282581475545,4.241
338.8926261463149,4.242
-249.89262614650602,4.243
-432.52825814762207,4.244
46.00000000028327,4.245
524.5282581476566,4.246
345.8926261464156,4.247
-239.89262614640535,4.248
-421.52825814766055,4.249
53.000000000158806,4.25
528.5282581476182,4.251
346.89262614651625,4.252
-243.89262614630462,4.253
-428.52825814741794,4.2540000000000004
43.00000000003434,4.255
514.5282581475797,4.256
328.8926261462491,4.257
-262.89262614620395,4.258
-447.5282581474564,4.259
24.99999999990987,4.26
498.52825814754124,4.261
314.89262614598186,4.2620000000000005
-271.8926261461032,4.263
-452.5282581474949,4.264
25.999999999785402,4.265
506.5282581476433,4.266
328.8926261460826,4.267
-254.89262614600256,4.268
-435.52825814753334,4.269
43.00000000011568,4.2700000000000005
519.5282581476049,4.271
338.89262614618326,4.272
-249.89262614626972,4.273
-434.5282581475718,4.274
37.000000000445965,4.275
507.52825814756636,4.276
323.892626146284,4.277
-265.89262614653694,4.2780000000000005
-450.5282581476103,4.279
22.000000000321496,4.28
498.52825814752794,4.281
316.89262614638466,4.282
-271.8926261464362,4.283
-451.5282581476487,4.284
27.00000000019703,4.285
508.52825814763,4.2860000000000005
331.89262614611744,4.287
-252.89262614633554,4.288
-433.52825814768715,4.289
43.00000000007256,4.29
519.5282581475915,4.291
340.89262614621816,4.292
-246.89262614623487,4.293
-431.5282581474446,4.2940000000000005
40.999999999948095,4.295
513.5282581476936,4.296
328.89262614631883,4.297
-262.89262614613415,4.298
-446.5282581474831,4.299
26.999999999823626,4.3
502.5282581476551,4.301
320.8926261460516,4.3020000000000005
-265.8926261464013,4.303
-445.5282581475215,4.304
33.999999999699156,4.305
515.5282581476167,4.306
338.8926261461523,4.307
-244.89262614630064,4.308
-425.52825814756,4.309
49.000000000484185,4.3100000000000005
527.5282581475782,4.311
347.892626146253,4.312
-240.89262614619997,4.313
-425.5282581475985,4.314
46.00000000035972,4.315
518.5282581475398,4.316
332.89262614598584,4.317
-256.89262614646714,4.3180000000000005
-439.52825814763696,4.319
34.000000000235254,4.32
507.5282581475013,4.321
325.8926261460865,4.322
-259.89262614636647,4.323
-438.52825814753487,4.324
41.00000000011078,4.325
522.5282581477438,4.3260000000000005
344.89262614618724,4.327
-238.89262614626574,4.328
-418.5282581475733,4.329
57.999999999986315,4.33
534.5282581477054,4.331
354.8926261462879,4.332
-233.89262614616507,4.333
-418.52825814747126,4.3340000000000005
53.99999999986185,4.335
526.528258147667,4.336
341.89262614638864,4.337
-248.8926261464323,4.338
-432.5282581475097,4.339
40.99999999973738,4.34
516.5282581476284,4.341
334.89262614612136,4.3420000000000005
-251.89262614633162,4.343
-431.5282581475482,4.344
48.00000000006766,4.345
528.5282581475899,4.346
351.8926261458542,4.347
-230.8926261462309,4.348
-410.52825814758666,4.349
68.00000000039795,4.3500000000000005
545.5282581475516,4.351
363.8926261459549,4.352
-222.89262614613023,4.353
-407.52825814748456,4.354
64.00000000027347,4.355
536.528258147513,4.356
349.8926261460556,4.357
-240.8926261460295,4.358
-424.52825814752305,4.359
48.00000000014901,4.36
525.5282581474746,4.361
343.8926261461563,4.362
-241.89262614629666,4.363
-421.5282581475615,4.364
58.00000000002454,4.365
539.5282581475767,4.366
361.892626146257,4.367
-220.89262614656394,4.368
-401.52825814759996,4.369
75.99999999990007,4.37
553.5282581476788,4.371
373.8926261463577,4.372
-214.89262614646321,4.373
-398.52825814763844,4.374
74.00000000023036,4.375
547.5282581476403,4.376
361.8926261464584,4.377
-227.89262614636255,4.378
-412.52825814753635,4.3790000000000004
62.000000000105885,4.38
537.5282581476017,4.381
355.8926261465591,4.382
-230.89262614626182,4.383
